4.181150982E+00  5.859539032E+00
4.200444380E+00  6.575989246E+00
4.219737778E+00  6.888777733E+00
4.239031177E+00  7.350007534E+00
4.258324575E+00  5.368331909E+00
4.277617973E+00  3.195996284E+00
4.296911372E+00  4.031096399E-01
4.316204770E+00  6.457788348E-01
4.335498168E+00  2.642174482E+00
4.354791567E+00  4.517505646E+00
4.374084965E+00  3.095743656E+00
4.393378363E+00  1.748431444E+00
4.412671762E+00  2.511589766E+00
4.431965160E+00  2.066210032E+00
4.451258558E+00  5.530292392E-01
4.470551957E+00  -8.360565901E-01
4.489845355E+00  8.089360595E-01
4.509138753E+00  4.703018188E+00
4.528432152E+00  6.924091339E+00
4.547725550E+00  7.756872177E+00
4.567018948E+00  1.075229073E+01
4.586312347E+00  1.888294220E+01
4.605605745E+00  3.593736267E+01
4.624899143E+00  5.457662201E+01
4.644192542E+00  6.836608887E+01
4.663485940E+00  7.029296875E+01
4.682779338E+00  6.109511948E+01
4.702072737E+00  4.614869690E+01
4.721366135E+00  3.152525330E+01
4.740659533E+00  1.954862976E+01
4.759952931E+00  1.221141148E+01
4.779246330E+00  7.936587811E+00
4.798539728E+00  3.757310152E+00
4.817833126E+00  2.514852524E+00
4.837126525E+00  5.204840183E+00
4.856419923E+00  7.130891800E+00
4.875713321E+00  1.417693138E+01
4.895006720E+00  2.368006134E+01
4.914300118E+00  3.692864609E+01
4.933593516E+00  4.820696259E+01
4.952886915E+00  5.266132355E+01
4.972180313E+00  5.007113266E+01
4.991473711E+00  4.022805023E+01
5.010767110E+00  3.067734146E+01
5.030060508E+00  2.183588600E+01
5.049353906E+00  1.222631454E+01
5.068647305E+00  5.166905880E+00
5.087940703E+00  1.708946228E-01
5.107234101E+00  -6.762350202E-01
5.126527500E+00  -1.894414544E+00
5.145820898E+00  -2.139709473E+00
5.165114296E+00  -6.452049017E-01
5.184407695E+00  -2.856747508E-01
5.203701093E+00  8.472560048E-01
5.222994491E+00  -7.032830119E-01
5.242287890E+00  -6.663300395E-01
5.261581288E+00  1.448444247E+00
5.280874686E+00  2.276133537E+00
5.300168084E+00  1.365035892E+00
5.319461483E+00  -1.074898958E+00
5.338754881E+00  1.295152903E+00
5.358048279E+00  3.808331251E+00
5.377341678E+00  8.899989128E+00
5.396635076E+00  1.202615643E+01
5.415928474E+00  1.652904892E+01
5.435221873E+00  1.980800438E+01
5.454515271E+00  2.177657127E+01
5.473808669E+00  2.619436264E+01
5.493102068E+00  2.991346359E+01
5.512395466E+00  3.342074203E+01
5.531688864E+00  3.483767319E+01
5.550982263E+00  3.765285492E+01
5.570275661E+00  4.158825684E+01
5.589569059E+00  4.599017715E+01
5.608862458E+00  4.788129044E+01
5.628155856E+00  4.950122452E+01
5.647449254E+00  4.678900909E+01
5.666742653E+00  4.436260223E+01
5.686036051E+00  4.416856766E+01
5.705329449E+00  4.384755325E+01
5.724622848E+00  4.032998276E+01
5.743916246E+00  3.818738556E+01
5.763209644E+00  3.665040970E+01
5.782503043E+00  3.376947021E+01
5.801796441E+00  2.924305534E+01
5.821089839E+00  2.534764099E+01
5.840383237E+00  2.388807106E+01
5.859676636E+00  2.072267342E+01
5.878970034E+00  1.895582581E+01
5.898263432E+00  1.634149170E+01
5.917556831E+00  1.495405674E+01
5.936850229E+00  1.449811268E+01
5.956143627E+00  1.263751507E+01
5.975437026E+00  1.177757645E+01
5.994730424E+00  1.067001534E+01
6.014023822E+00  1.138119316E+01
6.033317221E+00  1.267124653E+01
6.052610619E+00  1.303118229E+01
6.071904017E+00  1.110449696E+01
6.091197416E+00  9.507739067E+00
6.110490814E+00  8.499938965E+00
6.129784212E+00  1.282222080E+01
6.149077611E+00  1.648834610E+01
6.168371009E+00  2.106060600E+01
6.187664407E+00  2.435004616E+01
6.206957806E+00  2.633470535E+01
6.226251204E+00  2.878927612E+01
6.245544602E+00  2.970458031E+01
6.264838001E+00  2.933129501E+01
6.284131399E+00  2.610528755E+01
6.303424797E+00  2.384881973E+01
6.322718196E+00  2.016852379E+01
6.342011594E+00  2.007507896E+01
6.361304992E+00  1.836750984E+01
6.380598390E+00  1.954191017E+01
6.399891789E+00  2.150973511E+01
6.419185187E+00  2.381926537E+01
6.438478585E+00  2.459067726E+01
6.457771984E+00  2.377754593E+01
6.477065382E+00  2.119005203E+01
6.496358780E+00  1.755748940E+01
6.515652179E+00  1.661177826E+01
6.534945577E+00  1.433282375E+01
6.554238975E+00  1.178738689E+01
6.573532374E+00  8.225035667E+00
6.592825772E+00  6.851814270E+00
6.612119170E+00  6.337321281E+00
6.631412569E+00  3.463868141E+00
6.650705967E+00  1.258058310E+00
6.669999365E+00  -1.340524912E+00
6.689292764E+00  -2.226160049E+00
6.708586162E+00  -3.995167732E+00
6.727879560E+00  -3.368780375E+00
6.747172959E+00  -1.942671180E+00
6.766466357E+00  -7.899990678E-01
6.785759755E+00  -1.030030370E+00
6.805053154E+00  -1.272551343E-02
6.824346552E+00  1.293061376E+00
6.843639950E+00  2.345221758E+00
6.862933349E+00  1.138731718E+00
6.882226747E+00  8.975340128E-01
6.901520145E+00  1.346013308E+00
6.920813543E+00  1.157719016E+00
6.940106942E+00  -8.272616565E-02
6.959400340E+00  -1.842764735E+00
6.978693738E+00  -3.547958136E-01
6.997987137E+00  1.787146449E+00
7.017280535E+00  3.213577032E+00
7.036573933E+00  1.900416255E+00
7.055867332E+00  1.293018937E+00
7.075160730E+00  5.569177866E-01
7.094454128E+00  4.362311363E-01
7.113747527E+00  -2.928259410E-02
7.133040925E+00  2.923766851E+00
7.152334323E+00  5.101508141E+00
7.171627722E+00  5.416543961E+00
7.190921120E+00  5.137236595E+00
7.210214518E+00  4.655056000E+00
7.229507917E+00  6.483376980E+00
7.248801315E+00  5.154223919E+00
7.268094713E+00  3.605005026E+00
7.287388112E+00  2.777160168E+00
7.306681510E+00  2.566859722E+00
7.325974908E+00  2.238102674E+00
7.345268307E+00  1.679321170E+00
7.364561705E+00  1.099679232E+00
7.383855103E+00  -6.615920067E-01
7.403148502E+00  -6.471500397E-01
7.422441900E+00  -2.358818203E-01
7.441735298E+00  5.138376355E-01
7.461028696E+00  -6.856583357E-01
7.480322095E+00  -2.353620976E-01
7.499615493E+00  -6.815773845E-01
7.518908891E+00  -1.932721257E+00
7.538202290E+00  -2.065239191E+00
7.557495688E+00  -2.658087492E+00
7.576789086E+00  -2.663104773E+00
7.596082485E+00  -2.985103130E+00
7.615375883E+00  1.138722539E+00
7.634669281E+00  3.703476906E+00
7.653962680E+00  6.951438904E+00
7.673256078E+00  9.006809235E+00
7.692549476E+00  9.985066414E+00
7.711842875E+00  1.167947006E+01
7.731136273E+00  1.272168446E+01
7.750429671E+00  1.488913059E+01
7.769723070E+00  1.557347488E+01
7.789016468E+00  1.402400875E+01
7.808309866E+00  1.254734135E+01
7.827603265E+00  1.173735905E+01
7.846896663E+00  1.454283142E+01
7.866190061E+00  2.011846542E+01
7.885483460E+00  2.936175728E+01
7.904776858E+00  4.177869415E+01
7.924070256E+00  5.893540955E+01
7.943363655E+00  8.247182465E+01
7.962657053E+00  1.098045349E+02
7.981950451E+00  1.374905548E+02
8.001243849E+00  1.609761047E+02
8.020537248E+00  1.743927155E+02
8.039830646E+00  1.771903534E+02
8.059124044E+00  1.671941986E+02
8.078417443E+00  1.541386719E+02
8.097710841E+00  1.322938538E+02
8.117004239E+00  1.117760391E+02
8.136297638E+00  9.394325256E+01
8.155591036E+00  8.115481567E+01
8.174884434E+00  7.010648346E+01
8.194177833E+00  6.132809067E+01
8.213471231E+00  5.676506424E+01
8.232764629E+00  5.229821777E+01
8.252058028E+00  4.697034073E+01
8.271351426E+00  4.164588165E+01
8.290644824E+00  3.879195404E+01
8.309938223E+00  3.536606979E+01
8.329231621E+00  3.108153343E+01
8.348525019E+00  2.353904724E+01
8.367818418E+00  1.740691376E+01
8.387111816E+00  1.257754517E+01
8.406405214E+00  8.609621048E+00
8.425698613E+00  6.068448067E+00
8.444992011E+00  3.490323782E+00
8.464285409E+00  1.167475224E+00
8.483578808E+00  4.080828428E-01
8.502872206E+00  -1.470049024E+00
8.522165604E+00  2.995737828E-02
8.541459002E+00  -1.194740653E+00
8.560752401E+00  -4.292120039E-01
8.580045799E+00  -5.992942676E-02
8.599339197E+00  2.027780533E+00
8.618632596E+00  4.676309586E+00
8.637925994E+00  8.685021400E+00
8.657219392E+00  1.137276077E+01
8.676512791E+00  1.655710220E+01
8.695806189E+00  2.384365845E+01
8.715099587E+00  3.633043289E+01
8.734392986E+00  5.132216644E+01
8.753686384E+00  6.973756409E+01
8.772979782E+00  1.029867325E+02
8.792273181E+00  1.560466003E+02
8.811566579E+00  2.432426758E+02
8.830859977E+00  3.743994141E+02
8.850153376E+00  5.365809326E+02
8.869446774E+00  7.193955688E+02
8.888740172E+00  8.573319092E+02
8.908033571E+00  9.192636108E+02
8.927326969E+00  8.806796875E+02
8.946620367E+00  7.596134644E+02
8.965913766E+00  5.936153564E+02
8.985207164E+00  4.409169617E+02
9.004500562E+00  3.070865784E+02
9.023793960E+00  2.142553558E+02
9.043087359E+00  1.495005188E+02
9.062380757E+00  1.000918884E+02
9.081674155E+00  6.181872177E+01
9.100967554E+00  3.583327484E+01
9.120260952E+00  2.702743340E+01
9.139554350E+00  2.581055450E+01
9.158847749E+00  2.673590469E+01
9.178141147E+00  2.415762711E+01
9.197434545E+00  2.591895485E+01
9.216727944E+00  3.147402763E+01
9.236021342E+00  4.168523026E+01
9.255314740E+00  5.270112228E+01
9.274608139E+00  6.321837997E+01
9.293901537E+00  7.190731812E+01
9.313194935E+00  7.599174500E+01
9.332488334E+00  7.427501678E+01
9.351781732E+00  7.093943024E+01
9.371075130E+00  6.163599396E+01
9.390368529E+00  5.116047287E+01
9.409661927E+00  3.703176880E+01
9.428955325E+00  2.794967461E+01
9.448248724E+00  2.167060661E+01
9.467542122E+00  1.800761223E+01
9.486835520E+00  1.793095970E+01
9.506128919E+00  2.031082535E+01
9.525422317E+00  2.439800835E+01
9.544715715E+00  3.163058281E+01
9.564009113E+00  4.045007706E+01
9.583302512E+00  4.942648315E+01
9.602595910E+00  5.464864349E+01
9.621889308E+00  5.792765427E+01
9.641182707E+00  5.970579147E+01
9.660476105E+00  5.871500015E+01
9.679769503E+00  5.422372818E+01
9.699062902E+00  4.789020538E+01
9.718356300E+00  4.213113403E+01
9.737649698E+00  3.572618866E+01
9.756943097E+00  3.071574974E+01
9.776236495E+00  2.407547569E+01
9.795529893E+00  2.230958939E+01
9.814823292E+00  1.956027794E+01
9.834116690E+00  2.056155968E+01
9.853410088E+00  2.067569542E+01
9.872703487E+00  2.283436012E+01
9.891996885E+00  2.375961113E+01
9.911290283E+00  2.467240524E+01
9.930583682E+00  2.538930130E+01
9.949877080E+00  2.524507332E+01
9.969170478E+00  2.366402817E+01
9.988463877E+00  1.903892136E+01
1.000775727E+01  1.361622524E+01
1.002705067E+01  9.143853188E+00
1.004634407E+01  3.710521460E+00
1.006563747E+01  1.934485435E+00
1.008493087E+01  -8.362570405E-01
1.010422427E+01  -1.904326797E+00
1.012351766E+01  -3.070124149E+00
1.014281106E+01  -3.520006180E+00
1.016210446E+01  -5.505969524E+00
1.018139786E+01  -6.661319733E+00
1.020069126E+01  -7.789978504E+00
1.021998466E+01  -8.039819717E+00
1.023927805E+01  -8.553306580E+00
1.025857145E+01  -1.032662392E+01
1.027786485E+01  -9.741175652E+00
1.029715825E+01  -8.650259972E+00
1.031645165E+01  -4.038985729E+00
1.033574505E+01  -1.566029668E+00
1.035503844E+01  2.432417125E-01
1.037433184E+01  4.422788143E+00
1.039362524E+01  1.239376640E+01
1.041291864E+01  2.294132423E+01
1.043221204E+01  3.292479324E+01
1.045150544E+01  4.289633560E+01
1.047079883E+01  5.159505844E+01
1.049009223E+01  6.323973465E+01
1.050938563E+01  7.812741089E+01
1.052867903E+01  9.530088043E+01
1.054797243E+01  1.163392029E+02
1.056726583E+01  1.325500488E+02
1.058655922E+01  1.449933929E+02
1.060585262E+01  1.540432281E+02
1.062514602E+01  1.624039459E+02
1.064443942E+01  1.697362518E+02
1.066373282E+01  1.754963379E+02
1.068302622E+01  1.822436371E+02
1.070231961E+01  1.895959167E+02
1.072161301E+01  1.956917114E+02
1.074090641E+01  2.053272095E+02
1.076019981E+01  2.121003113E+02
1.077949321E+01  2.201371613E+02
1.079878661E+01  2.287162018E+02
1.081808000E+01  2.381201172E+02
1.083737340E+01  2.467738800E+02
1.085666680E+01  2.517834778E+02
1.087596020E+01  2.544007568E+02
1.089525360E+01  2.546599121E+02
1.091454700E+01  2.509465332E+02
1.093384039E+01  2.434502716E+02
1.095313379E+01  2.305393372E+02
1.097242719E+01  2.130192413E+02
1.099172059E+01  1.935835571E+02
1.101101399E+01  1.746250763E+02
1.103030739E+01  1.555994263E+02
1.104960078E+01  1.338541718E+02
1.106889418E+01  1.148325882E+02
1.108818758E+01  9.889771271E+01
1.110748098E+01  8.551784515E+01
1.112677438E+01  7.745653534E+01
1.114606778E+01  7.252349854E+01
1.116536117E+01  7.073385620E+01
1.118465457E+01  6.961134338E+01
1.120394797E+01  7.407964325E+01
1.122324137E+01  8.218556976E+01
1.124253477E+01  9.198699951E+01
1.126182817E+01  1.044269104E+02
1.128112156E+01  1.207901382E+02
1.130041496E+01  1.413604279E+02
1.131970836E+01  1.646449890E+02
1.133900176E+01  1.911047821E+02
1.135829516E+01  2.237875061E+02
1.137758856E+01  2.644327087E+02
1.139688195E+01  3.125846863E+02
1.141617535E+01  3.673621216E+02
1.143546875E+01  4.278961182E+02
1.145476215E+01  4.929863281E+02
1.147405555E+01  5.549560547E+02
1.149334895E+01  6.131298828E+02
1.151264234E+01  6.591028442E+02
1.153193574E+01  6.855917358E+02
1.155122914E+01  6.879531250E+02
1.157052254E+01  6.729027100E+02
1.158981594E+01  6.424287109E+02
1.160910934E+01  6.012296143E+02
1.162840273E+01  5.473327026E+02
1.164769613E+01  4.848974915E+02
1.166698953E+01  4.223486633E+02
1.168628293E+01  3.619125671E+02
1.170557633E+01  3.074132996E+02
1.172486973E+01  2.584920654E+02
1.174416312E+01  2.155032654E+02
1.176345652E+01  1.764207458E+02
1.178274992E+01  1.432964935E+02
1.180204332E+01  1.140121841E+02
1.182133672E+01  9.052715302E+01
1.184063012E+01  7.108450317E+01
1.185992351E+01  5.641202927E+01
1.187921691E+01  4.427663803E+01
1.189851031E+01  3.375538254E+01
1.191780371E+01  2.552743530E+01
1.193709711E+01  2.066926003E+01
1.195639051E+01  1.781354523E+01
1.197568390E+01  1.667826462E+01
1.199497730E+01  1.658303261E+01
1.201427070E+01  1.618323135E+01
1.203356410E+01  1.669315529E+01
1.205285750E+01  1.407986164E+01
1.207215090E+01  1.306170368E+01
1.209144429E+01  1.367155743E+01
1.211073769E+01  1.374461746E+01
1.213003109E+01  1.272942638E+01
1.214932449E+01  1.201062965E+01
1.216861789E+01  1.534134388E+01
1.218791129E+01  2.089002800E+01
1.220720468E+01  2.438599205E+01
1.222649808E+01  2.704248238E+01
1.224579148E+01  3.402470779E+01
1.226508488E+01  4.207408524E+01
1.228437828E+01  5.253706741E+01
1.230367168E+01  6.053089523E+01
1.232296507E+01  6.943138123E+01
1.234225847E+01  7.874207306E+01
1.236155187E+01  9.130125427E+01
1.238084527E+01  1.048437119E+02
1.240013867E+01  1.183664780E+02
1.241943207E+01  1.296278076E+02
1.243872546E+01  1.415935211E+02
1.245801886E+01  1.535123749E+02
1.247731226E+01  1.630626068E+02
1.249660566E+01  1.709490356E+02
1.251589906E+01  1.727842255E+02
1.253519245E+01  1.695859985E+02
1.255448585E+01  1.634485779E+02
1.257377925E+01  1.522786865E+02
1.259307265E+01  1.417179108E+02
1.261236605E+01  1.305679474E+02
1.263165945E+01  1.204154205E+02
1.265095284E+01  1.089592285E+02
1.267024624E+01  9.545463562E+01
1.268953964E+01  8.403335571E+01
1.270883304E+01  7.445989990E+01
1.272812644E+01  6.560395050E+01
1.274741984E+01  5.531785583E+01
1.276671323E+01  4.591535187E+01
1.278600663E+01  3.890373993E+01
1.280530003E+01  3.484401321E+01
1.282459343E+01  3.157642365E+01
1.284388683E+01  2.919460487E+01
1.286318023E+01  2.740618134E+01
1.288247362E+01  2.715262222E+01
1.290176702E+01  2.753699112E+01
1.292106042E+01  3.017427635E+01
1.294035382E+01  3.398119354E+01
1.295964722E+01  3.957534790E+01
1.297894062E+01  4.782773972E+01
1.299823401E+01  6.027558899E+01
1.301752741E+01  7.871584320E+01
1.303682081E+01  1.041883621E+02
1.305611421E+01  1.366313782E+02
1.307540761E+01  1.754335480E+02
1.309470101E+01  2.227601318E+02
1.311399440E+01  2.726737976E+02
1.313328780E+01  3.248763428E+02
1.315258120E+01  3.723588257E+02
1.317187460E+01  4.121345825E+02
1.319116800E+01  4.407231445E+02
1.321046140E+01  4.603360291E+02
1.322975479E+01  4.697996216E+02
1.324904819E+01  4.730087280E+02
1.326834159E+01  4.706852417E+02
1.328763499E+01  4.669230957E+02
1.330692839E+01  4.583581848E+02
1.332622179E+01  4.465368042E+02
1.334551518E+01  4.303426819E+02
1.336480858E+01  4.118000488E+02
1.338410198E+01  3.881272888E+02
1.340339538E+01  3.610168457E+02
1.342268878E+01  3.334287720E+02
1.344198218E+01  3.070955200E+02
1.346127557E+01  2.769951782E+02
1.348056897E+01  2.469599915E+02
1.349986237E+01  2.181962891E+02
1.351915577E+01  1.922912140E+02
1.353844917E+01  1.699539795E+02
1.355774257E+01  1.504706726E+02
1.357703596E+01  1.335028687E+02
1.359632936E+01  1.139040146E+02
1.361562276E+01  9.808542633E+01
1.363491616E+01  8.543837738E+01
1.365420956E+01  7.686167908E+01
1.367350296E+01  6.826881409E+01
1.369279635E+01  6.104149246E+01
1.371208975E+01  5.581825256E+01
1.373138315E+01  5.186848831E+01
1.375067655E+01  5.361977768E+01
1.376996995E+01  5.694183350E+01
1.378926335E+01  6.196583176E+01
1.380855674E+01  6.796892548E+01
1.382785014E+01  7.822436523E+01
1.384714354E+01  8.802490997E+01
1.386643694E+01  1.045934830E+02
1.388573034E+01  1.274642944E+02
1.390502374E+01  1.563143463E+02
1.392431713E+01  1.799690704E+02
1.394361053E+01  1.998876801E+02
1.396290393E+01  2.100530853E+02
1.398219733E+01  1.996751862E+02
1.400149073E+01  1.480623016E+02
1.402078413E+01  7.118532562E+01
1.404007752E+01  3.097949600E+01
1.405937092E+01  1.050104065E+02
1.407866432E+01  1.342498932E+02
1.409795772E+01  1.412037354E+02
1.411725112E+01  1.710822754E+02
1.413654452E+01  2.043553619E+02
1.415583791E+01  2.504601440E+02
1.417513131E+01  2.961130066E+02
1.419442471E+01  3.456636963E+02
1.421371811E+01  4.199326172E+02
1.423301151E+01  4.740592346E+02
1.425230491E+01  4.915824585E+02
1.427159830E+01  4.231210022E+02
1.429089170E+01  3.375963135E+02
1.431018510E+01  2.414256592E+02
1.432947850E+01  1.698288116E+02
1.434877190E+01  1.169054337E+02
1.436806530E+01  9.540136719E+01
1.438735869E+01  7.796142578E+01
1.440665209E+01  5.582559967E+01
1.442594549E+01  1.247215462E+01
1.444523889E+01  7.731412888E+00
1.446453229E+01  1.542586803E+01
1.448382569E+01  2.436189651E+01
1.450311908E+01  2.813346291E+01
1.452241248E+01  2.807134628E+01
1.454170588E+01  2.714352226E+01
1.456099928E+01  2.407089615E+01
1.458029268E+01  1.496767426E+01
1.459958608E+01  2.620232105E-01
1.461887947E+01  -5.414769173E+00
1.463817287E+01  -4.908469677E+00
1.465746627E+01  -3.045317650E+00
1.467675967E+01  -2.346624613E+00
1.469605307E+01  -5.707647800E-01
1.471534647E+01  -7.886150479E-01
1.473463986E+01  1.819083095E+00
1.475393326E+01  1.662895560E+00
1.477322666E+01  5.124579430E+00
1.479252006E+01  8.765090942E+00
1.481181346E+01  1.190564060E+01
1.483110686E+01  1.301832199E+01
1.485040025E+01  7.124300003E+00
1.486969365E+01  4.974321127E-01
1.488898705E+01  -3.289350271E+00
1.490828045E+01  2.092506409E+00
1.492757385E+01  8.981814384E+00
1.494686725E+01  1.424180984E+01
1.496616064E+01  1.495668316E+01
1.498545404E+01  1.377655125E+01
1.500474744E+01  1.343845844E+01
1.502404084E+01  1.286842632E+01
1.504333424E+01  1.342950058E+01
1.506262764E+01  1.523181152E+01
1.508192103E+01  1.725171852E+01
1.510121443E+01  2.109475136E+01
1.512050783E+01  2.270483398E+01
1.513980123E+01  2.514212418E+01
1.515909463E+01  2.826685524E+01
1.517838802E+01  3.115241241E+01
1.519768142E+01  3.460488129E+01
1.521697482E+01  3.912885666E+01
1.523626822E+01  4.386959457E+01
1.525556162E+01  4.954829788E+01
1.527485502E+01  5.509764481E+01
1.529414841E+01  5.871229935E+01
1.531344181E+01  6.086480331E+01
1.533273521E+01  6.151088715E+01
1.535202861E+01  5.990075684E+01
1.537132201E+01  5.296385956E+01
1.539061541E+01  4.726006699E+01
1.540990880E+01  4.057584763E+01
1.542920220E+01  3.592916489E+01
1.544849560E+01  3.033584785E+01
1.546778900E+01  2.461229897E+01
1.548708240E+01  1.987747383E+01
1.550637580E+01  1.671814919E+01
1.552566919E+01  1.506589031E+01
1.554496259E+01  1.083718014E+01
1.556425599E+01  5.870436192E+00
1.558354939E+01  -4.835533723E-02
1.560284279E+01  -2.465665817E+00
1.562213619E+01  -3.543384552E+00
1.564142958E+01  -4.064431667E+00
1.566072298E+01  -5.116596699E+00
1.568001638E+01  -4.888923645E+00
1.569930978E+01  -4.614338398E+00
1.571860318E+01  -5.138983727E+00
1.573789658E+01  -5.626567364E+00
1.575718997E+01  -6.290293217E+00
1.577648337E+01  -6.533243179E+00
1.579577677E+01  -4.648330688E+00
1.581507017E+01  -6.316590309E+00
1.583436357E+01  -7.150148869E+00
1.585365697E+01  -5.679531574E+00
1.587295036E+01  -1.655907989E+00
1.589224376E+01  6.678984165E-01
1.591153716E+01  3.229060411E+00
1.593083056E+01  4.816364765E+00
1.595012396E+01  6.713034153E+00
1.596941736E+01  6.046819687E+00
1.598871075E+01  7.479209423E+00
1.600800415E+01  1.215342236E+01
1.602729755E+01  1.897467995E+01
1.604659095E+01  1.938461685E+01
1.606588435E+01  2.011444664E+01
1.608517775E+01  7.164199829E+01
1.610447114E+01  1.307634735E+02
1.612376454E+01  1.031862640E+02
1.614305794E+01  4.917729187E+01
1.616235134E+01  2.853503036E+01
1.618164474E+01  3.413386917E+01
1.620093814E+01  4.953107452E+01
1.622023153E+01  6.495503998E+01
1.623952493E+01  6.358460999E+01
1.625881833E+01  7.010275269E+01
1.627811173E+01  8.418340302E+01
1.629740513E+01  1.323725433E+02
1.631669853E+01  1.704956512E+02
1.633599192E+01  1.741711884E+02
1.635528532E+01  2.129023132E+02
1.637457872E+01  2.784147949E+02
1.639387212E+01  3.737784119E+02
1.641316552E+01  4.329815063E+02
1.643245892E+01  5.718605957E+02
1.645175231E+01  6.133736572E+02
1.647104571E+01  5.961117554E+02
1.649033911E+01  5.354274902E+02
1.650963251E+01  4.031996155E+02
1.652892591E+01  2.879109802E+02
1.654821931E+01  2.140629730E+02
1.656751270E+01  1.406517639E+02
1.658680610E+01  1.306060333E+02
1.660609950E+01  1.172809219E+02
1.662539290E+01  1.000434189E+02
1.664468630E+01  8.427996826E+01
1.666397970E+01  9.093087769E+01
1.668327309E+01  8.905988312E+01
1.670256649E+01  8.477483368E+01
1.672185989E+01  7.189050293E+01
1.674115329E+01  7.670960999E+01
1.676044669E+01  7.221908569E+01
1.677974009E+01  7.721224308E+00
1.679903348E+01  2.239002228E+01
1.681832688E+01  4.064597321E+01
1.683762028E+01  5.524003983E+01
1.685691368E+01  6.773803711E+01
1.687620708E+01  8.273156738E+01
1.689550048E+01  1.026854248E+02
1.691479387E+01  1.254588547E+02
1.693408727E+01  1.524830475E+02
1.695338067E+01  1.816268463E+02
1.697267407E+01  2.119528656E+02
1.699196747E+01  2.417765656E+02
1.701126087E+01  2.686033325E+02
1.703055426E+01  2.911552124E+02
1.704984766E+01  3.105070190E+02
1.706914106E+01  3.240459900E+02
1.708843446E+01  3.308983765E+02
1.710772786E+01  3.317379456E+02
1.712702126E+01  3.258836670E+02
1.714631465E+01  3.136082153E+02
1.716560805E+01  3.013408203E+02
1.718490145E+01  2.872632446E+02
1.720419485E+01  2.686004333E+02
1.722348825E+01  2.497516022E+02
1.724278165E+01  2.298992462E+02
1.726207504E+01  2.103505554E+02
1.728136844E+01  1.878837433E+02
1.730066184E+01  1.670231018E+02
1.731995524E+01  1.467136383E+02
1.733924864E+01  1.260056076E+02
1.735854204E+01  1.071897888E+02
1.737783543E+01  8.825991058E+01
1.739712883E+01  7.246586609E+01
1.741642223E+01  5.751096344E+01
1.743571563E+01  4.047507858E+01
1.745500903E+01  2.214787483E+01
1.747430243E+01  9.680673599E+00
1.749359582E+01  6.269083023E+00
1.751288922E+01  7.488205433E+00
1.753218262E+01  7.517253399E+00
1.755147602E+01  3.660061836E+00
1.757076942E+01  -2.071165800E+00
1.759006282E+01  -6.294720650E+00
1.760935621E+01  -9.021592140E+00
1.762864961E+01  -1.046991444E+01
1.764794301E+01  -8.708276749E+00
1.766723641E+01  -5.529255867E+00
1.768652981E+01  4.668567702E-02
1.770582321E+01  8.004104614E+00
1.772511660E+01  1.854449844E+01
1.774441000E+01  3.114221001E+01
1.776370340E+01  4.716821289E+01
1.778299680E+01  6.456149292E+01
1.780229020E+01  8.180170441E+01
1.782158360E+01  9.732494354E+01
1.784087699E+01  1.092481232E+02
1.786017039E+01  1.188806534E+02
1.787946379E+01  1.232196121E+02
1.789875719E+01  1.256103287E+02
1.791805059E+01  1.240594025E+02
1.793734398E+01  1.188797302E+02
1.795663738E+01  1.119272766E+02
1.797593078E+01  1.055539856E+02
1.799522418E+01  1.017151794E+02
1.801451758E+01  9.939559174E+01
1.803381098E+01  1.008769302E+02
1.805310437E+01  1.022378540E+02
1.807239777E+01  1.064716873E+02
1.809169117E+01  1.158394089E+02
1.811098457E+01  1.286938477E+02
1.813027797E+01  1.435658875E+02
1.814957137E+01  1.593399811E+02
1.816886476E+01  1.752568512E+02
1.818815816E+01  1.891356049E+02
1.820745156E+01  2.028896332E+02
1.822674496E+01  2.176330109E+02
1.824603836E+01  2.311607666E+02
1.826533176E+01  2.419007263E+02
1.828462515E+01  2.475983276E+02
1.830391855E+01  2.505915527E+02
1.832321195E+01  2.505127563E+02
1.834250535E+01  2.453048401E+02
1.836179875E+01  2.365139160E+02
1.838109215E+01  2.273767090E+02
1.840038554E+01  2.154404602E+02
1.841967894E+01  2.033961182E+02
1.843897234E+01  1.927101746E+02
1.845826574E+01  1.815490112E+02
1.847755914E+01  1.730608368E+02
1.849685254E+01  1.664025269E+02
1.851614593E+01  1.641019745E+02
1.853543933E+01  1.630922089E+02
1.855473273E+01  1.650536804E+02
1.857402613E+01  1.692184753E+02
1.859331953E+01  1.745756073E+02
1.861261293E+01  1.831737976E+02
1.863190632E+01  1.915315399E+02
1.865119972E+01  2.008759460E+02
1.867049312E+01  2.112154083E+02
1.868978652E+01  2.250682526E+02
1.870907992E+01  2.391920471E+02
1.872837332E+01  2.529843750E+02
1.874766671E+01  2.637161865E+02
1.876696011E+01  2.755390625E+02
1.878625351E+01  2.837233582E+02
1.880554691E+01  2.898182983E+02
1.882484031E+01  2.931189575E+02
1.884413371E+01  2.945062561E+02
1.886342710E+01  2.921470032E+02
1.888272050E+01  2.856495056E+02
1.890201390E+01  2.753120728E+02
1.892130730E+01  2.619816895E+02
1.894060070E+01  2.468879547E+02
1.895989410E+01  2.293206024E+02
1.897918749E+01  2.115079346E+02
1.899848089E+01  1.938524017E+02
1.901777429E+01  1.767475128E+02
1.903706769E+01  1.600002136E+02
1.905636109E+01  1.425962219E+02
1.907565449E+01  1.269703674E+02
1.909494788E+01  1.124994736E+02
1.911424128E+01  9.912346649E+01
1.913353468E+01  8.731438446E+01
1.915282808E+01  7.580416107E+01
1.917212148E+01  6.653164673E+01
1.919141488E+01  5.895830917E+01
1.921070827E+01  5.244420624E+01
1.923000167E+01  4.682880402E+01
1.924929507E+01  4.300129318E+01
1.926858847E+01  4.064695358E+01
1.928788187E+01  4.105305481E+01
1.930717527E+01  4.276315689E+01
1.932646866E+01  4.793675995E+01
1.934576206E+01  5.054485321E+01
1.936505546E+01  5.310576248E+01
1.938434886E+01  5.617124939E+01
1.940364226E+01  6.088902283E+01
1.942293566E+01  6.390995789E+01
1.944222905E+01  6.743305206E+01
1.946152245E+01  6.874056244E+01
1.948081585E+01  6.838602448E+01
1.950010925E+01  6.490884399E+01
1.951940265E+01  6.163630676E+01
1.953869605E+01  5.776465988E+01
1.955798944E+01  5.270870209E+01
1.957728284E+01  4.753760529E+01
1.959657624E+01  4.129692078E+01
1.961586964E+01  3.607891846E+01
1.963516304E+01  3.149547958E+01
1.965445644E+01  2.887268066E+01
1.967374983E+01  2.712288666E+01
1.969304323E+01  2.493565178E+01
1.971233663E+01  2.103970337E+01
1.973163003E+01  2.010332680E+01
1.975092343E+01  2.005615234E+01
1.977021683E+01  2.028275871E+01
1.978951022E+01  1.777624321E+01
1.980880362E+01  1.489920902E+01
1.982809702E+01  1.202878380E+01
1.984739042E+01  1.030321121E+01
1.986668382E+01  8.542985916E+00
1.988597722E+01  6.426400185E+00
1.990527061E+01  3.371129274E+00
1.992456401E+01  9.138749838E-01
1.994385741E+01  -8.065283298E-02
1.996315081E+01  -3.335263014E+00
1.998244421E+01  -3.821660519E+00
2.000173761E+01  -2.077831984E+00
2.002103100E+01  -1.147833690E-01
2.004032440E+01  -2.297647476E+00
2.005961780E+01  -3.475567341E+00
2.007891120E+01  -3.666270018E+00
2.009820460E+01  -3.555579901E+00
2.011749800E+01  -4.897569656E+00
2.013679139E+01  -5.529210091E+00
2.015608479E+01  -5.144545078E+00
2.017537819E+01  -5.234391689E+00
2.019467159E+01  -5.272379398E+00
2.021396499E+01  -5.949083805E+00
2.023325839E+01  -5.561192989E+00
2.025255178E+01  -5.687535763E+00
2.027184518E+01  -5.670042515E+00
2.029113858E+01  -6.744122505E+00
2.031043198E+01  -5.902436733E+00
2.032972538E+01  -4.186650276E+00
2.034901878E+01  -3.158385515E+00
2.036831217E+01  -2.139459848E+00
2.038760557E+01  -1.012183905E+00
2.040689897E+01  1.425653338E+00
2.042619237E+01  2.632166386E+00
2.044548577E+01  5.337238789E+00
2.046477917E+01  6.689977646E+00
2.048407256E+01  7.959150791E+00
2.050336596E+01  1.004245853E+01
2.052265936E+01  1.310495663E+01
2.054195276E+01  1.636054611E+01
2.056124616E+01  1.969453239E+01
2.058053955E+01  2.199539757E+01
2.059983295E+01  2.430031586E+01
2.061912635E+01  2.830979538E+01
2.063841975E+01  3.424557495E+01
2.065771315E+01  3.760552216E+01
2.067700655E+01  3.909622955E+01
2.069629994E+01  3.935274124E+01
2.071559334E+01  4.171957016E+01
2.073488674E+01  4.677753448E+01
2.075418014E+01  5.091138458E+01
2.077347354E+01  5.384617996E+01
2.079276694E+01  5.439534378E+01
2.081206033E+01  5.710663986E+01
2.083135373E+01  6.066378403E+01
2.085064713E+01  6.259397888E+01
2.086994053E+01  6.293683624E+01
2.088923393E+01  6.503393555E+01
2.090852733E+01  6.983156586E+01
2.092782072E+01  7.212656403E+01
2.094711412E+01  7.179749298E+01
2.096640752E+01  7.398390198E+01
2.098570092E+01  7.588898468E+01
2.100499432E+01  7.651766968E+01
2.102428772E+01  7.583017731E+01
2.104358111E+01  7.693681335E+01
2.106287451E+01  7.682454681E+01
2.108216791E+01  7.553135681E+01
2.110146131E+01  7.194501495E+01
2.112075471E+01  6.924572754E+01
2.114004811E+01  6.904335785E+01
2.115934150E+01  6.826119995E+01
2.117863490E+01  6.707762909E+01
2.119792830E+01  6.499593353E+01
2.121722170E+01  6.287263870E+01
2.123651510E+01  5.951905441E+01
2.125580850E+01  6.035168076E+01
2.127510189E+01  6.191515350E+01
2.129439529E+01  6.380167389E+01
2.131368869E+01  6.448548889E+01
2.133298209E+01  6.664466858E+01
2.135227549E+01  6.921968842E+01
2.137156889E+01  7.151868439E+01
2.139086228E+01  7.328309631E+01
2.141015568E+01  7.247406006E+01
2.142944908E+01  6.870599365E+01
2.144874248E+01  6.259720993E+01
2.146803588E+01  5.697642517E+01
2.148732928E+01  5.244015884E+01
2.150662267E+01  4.774091339E+01
2.152591607E+01  4.207549667E+01
2.154520947E+01  3.354670334E+01
2.156450287E+01  2.697312546E+01
2.158379627E+01  1.997607040E+01
2.160308967E+01  1.441193104E+01
2.162238306E+01  9.277959824E+00
2.164167646E+01  2.595314503E+00
2.166096986E+01  1.596472342E-03
2.168026326E+01  8.250687122E-01
2.169955666E+01  -1.543930639E-02
2.171885006E+01  -6.638504863E-01
2.173814345E+01  -1.173518181E+00
2.175743685E+01  -1.256321371E-01
2.177673025E+01  8.756654263E-01
2.179602365E+01  1.748692513E+00
2.181531705E+01  3.030175686E+00
2.183461045E+01  5.102792263E+00
2.185390384E+01  7.284769535E+00
2.187319724E+01  1.194146156E+01
2.189249064E+01  1.869359970E+01
2.191178404E+01  2.339459419E+01
2.193107744E+01  2.781900597E+01
2.195037084E+01  3.177339554E+01
2.196966423E+01  3.606091690E+01
2.198895763E+01  4.116125870E+01
2.200825103E+01  4.846110153E+01
2.202754443E+01  5.593016815E+01
2.204683783E+01  6.319443893E+01
2.206613123E+01  6.956059265E+01
2.208542462E+01  7.566613007E+01
2.210471802E+01  7.999307251E+01
2.212401142E+01  8.500270844E+01
2.214330482E+01  9.010289001E+01
2.216259822E+01  9.392073822E+01
2.218189162E+01  9.545326996E+01
2.220118501E+01  9.799148560E+01
2.222047841E+01  9.847191620E+01
2.223977181E+01  9.632746887E+01
2.225906521E+01  9.243467712E+01
2.227835861E+01  8.885884857E+01
2.229765201E+01  8.547485352E+01
2.231694540E+01  8.250626373E+01
2.233623880E+01  7.821963501E+01
2.235553220E+01  7.363936615E+01
2.237482560E+01  6.883407593E+01
2.239411900E+01  6.472396851E+01
2.241341240E+01  6.233914566E+01
2.243270579E+01  5.862062836E+01
2.245199919E+01  5.398991394E+01
2.247129259E+01  5.028578186E+01
2.249058599E+01  4.790242767E+01
2.250987939E+01  4.574092102E+01
2.252917279E+01  4.347797012E+01
2.254846618E+01  4.153762436E+01
2.256775958E+01  4.150310898E+01
2.258705298E+01  4.232314682E+01
2.260634638E+01  4.085075760E+01
2.262563978E+01  4.153491592E+01
2.264493318E+01  4.068738174E+01
2.266422657E+01  4.103300476E+01
2.268351997E+01  4.325292206E+01
2.270281337E+01  4.766643524E+01
2.272210677E+01  5.087799835E+01
2.274140017E+01  5.438852692E+01
2.276069357E+01  5.759344101E+01
2.277998696E+01  6.336568069E+01
2.279928036E+01  6.899733734E+01
2.281857376E+01  7.382685852E+01
2.283786716E+01  8.001491547E+01
2.285716056E+01  8.669113922E+01
2.287645396E+01  9.092065430E+01
2.289574735E+01  9.403952789E+01
2.291504075E+01  9.945336151E+01
2.293433415E+01  1.049539337E+02
2.295362755E+01  1.096705933E+02
2.297292095E+01  1.111520767E+02
2.299221435E+01  1.089931793E+02
2.301150774E+01  1.065708542E+02
2.303080114E+01  1.008337784E+02
2.305009454E+01  9.790363312E+01
2.306938794E+01  9.197086334E+01
2.308868134E+01  9.231081390E+01
2.310797474E+01  9.759838867E+01
2.312726813E+01  1.170916748E+02
2.314656153E+01  1.419866486E+02
2.316585493E+01  1.663647156E+02
2.318514833E+01  1.938091431E+02
2.320444173E+01  2.325823059E+02
2.322373512E+01  2.889213562E+02
2.324302852E+01  3.715997314E+02
2.326232192E+01  4.525423889E+02
2.328161532E+01  5.195384521E+02
2.330090872E+01  5.693157959E+02
2.332020212E+01  5.868070679E+02
2.333949551E+01  5.764143066E+02
2.335878891E+01  5.395251465E+02
2.337808231E+01  4.701679077E+02
2.339737571E+01  3.849400635E+02
2.341666911E+01  2.834147339E+02
2.343596251E+01  1.860298157E+02
2.345525590E+01  1.427442780E+02
2.347454930E+01  1.311544189E+02
2.349384270E+01  1.199258499E+02
2.351313610E+01  9.364868927E+01
2.353242950E+01  6.634956360E+01
2.355172290E+01  4.714927292E+01
2.357101629E+01  3.427311707E+01
2.359030969E+01  2.046100807E+01
2.360960309E+01  1.534908295E+01
2.362889649E+01  1.269237518E+01
2.364818989E+01  1.249005604E+01
2.366748329E+01  9.784512520E+00
2.368677668E+01  9.796368599E+00
2.370607008E+01  6.329515457E+00
2.372536348E+01  3.063359261E+00
2.374465688E+01  2.528652906E+00
2.376395028E+01  2.214438200E+00
2.378324368E+01  1.368344903E+00
2.380253707E+01  8.000621200E-01
2.382183047E+01  4.304172993E-01
2.384112387E+01  4.429927170E-01
2.386041727E+01  -1.967090011E+00
2.387971067E+01  -5.521489382E-01
2.389900407E+01  3.652596176E-01
2.391829746E+01  2.483654737E+00
2.393759086E+01  3.853200912E+00
2.395688426E+01  5.146708965E+00
2.397617766E+01  4.449188232E+00
2.399547106E+01  2.363320351E+00
2.401476446E+01  2.379823208E+00
2.403405785E+01  3.285166264E+00
2.405335125E+01  3.449660301E+00
2.407264465E+01  3.787907124E+00
2.409193805E+01  3.691905975E+00
2.411123145E+01  6.627734661E+00
2.413052485E+01  5.829884052E+00
2.414981824E+01  3.658682585E+00
2.416911164E+01  1.152782321E+00
2.418840504E+01  3.226914167E+00
2.420769844E+01  3.748301744E+00
2.422699184E+01  3.243934393E+00
2.424628524E+01  3.463798285E+00
2.426557863E+01  5.339612961E+00
2.428487203E+01  4.291713715E+00
2.430416543E+01  5.149371028E-01
2.432345883E+01  -1.366181523E-01
2.434275223E+01  2.368716478E+00
2.436204563E+01  2.194276333E+00
2.438133902E+01  -6.105465293E-01
2.440063242E+01  -2.741411924E+00
2.441992582E+01  -4.172482967E+00
2.443921922E+01  -4.496764183E+00
2.445851262E+01  -4.247882366E+00
2.447780602E+01  -2.219186544E+00
2.449709941E+01  -4.354306757E-01
2.451639281E+01  1.037649512E+00
2.453568621E+01  1.695869923E+00
2.455497961E+01  7.557723522E-01
2.457427301E+01  -2.851629397E-03
2.459356641E+01  1.092623234E+00
2.461285980E+01  4.288070679E+00
2.463215320E+01  6.834492683E+00
2.465144660E+01  8.411353111E+00
2.467074000E+01  1.021031284E+01
2.469003340E+01  1.097843933E+01
2.470932680E+01  1.143739033E+01
2.472862019E+01  1.442452049E+01
2.474791359E+01  1.672393799E+01
2.476720699E+01  1.861214638E+01
2.478650039E+01  1.981190300E+01
2.480579379E+01  2.131131172E+01
2.482508719E+01  2.265115929E+01
2.484438058E+01  2.274133492E+01
2.486367398E+01  2.104758263E+01
2.488296738E+01  1.924263191E+01
2.490226078E+01  1.751575661E+01
2.492155418E+01  1.868508339E+01
2.494084758E+01  2.051863670E+01
2.496014097E+01  2.240180779E+01
2.497943437E+01  2.142062378E+01
2.499872777E+01  1.863028336E+01
2.501802117E+01  1.858543777E+01
2.503731457E+01  1.809141731E+01
2.505660797E+01  1.854797173E+01
2.507590136E+01  1.593755627E+01
2.509519476E+01  1.203065491E+01
2.511448816E+01  1.098807716E+01
2.513378156E+01  1.288732243E+01
2.515307496E+01  1.269866180E+01
2.517236836E+01  1.146897316E+01
2.519166175E+01  1.072433281E+01
2.521095515E+01  8.419723511E+00
2.523024855E+01  5.034740925E+00
2.524954195E+01  3.402941942E+00
2.526883535E+01  5.068536758E+00
2.528812875E+01  3.734387875E+00
2.530742214E+01  3.597709656E+00
2.532671554E+01  5.352509975E+00
2.534600894E+01  6.566303730E+00
2.536530234E+01  4.137880325E+00
2.538459574E+01  3.489688635E+00
2.540388914E+01  3.403046131E+00
2.542318253E+01  1.695389509E+00
2.544247593E+01  5.498666167E-01
2.546176933E+01  1.679159880E+00
2.548106273E+01  3.480274916E+00
2.550035613E+01  4.650754929E+00
2.551964953E+01  3.290492058E+00
2.553894292E+01  1.791623473E+00
2.555823632E+01  -4.551655352E-01
2.557752972E+01  -2.200614810E-01
2.559682312E+01  3.634888232E-01
2.561611652E+01  9.306184649E-01
2.563540992E+01  1.111362576E+00
2.565470331E+01  5.497058630E-01
2.567399671E+01  1.206270531E-01
2.569329011E+01  -1.330883026E+00
2.571258351E+01  -3.528879881E+00
2.573187691E+01  -3.211530685E+00
2.575117031E+01  7.304634452E-01
2.577046370E+01  3.769494057E+00
2.578975710E+01  5.878989697E+00
2.580905050E+01  7.515841484E+00
2.582834390E+01  9.634076118E+00
2.584763730E+01  9.652391434E+00
2.586693070E+01  1.200493717E+01
2.588622409E+01  1.386788273E+01
2.590551749E+01  1.352245331E+01
2.592481089E+01  1.330244637E+01
2.594410429E+01  1.422875023E+01
2.596339769E+01  1.886261749E+01
2.598269108E+01  2.087158775E+01
2.600198448E+01  2.402557373E+01
2.602127788E+01  2.511142349E+01
2.604057128E+01  2.925053787E+01
2.605986468E+01  2.943548965E+01
2.607915808E+01  3.116528320E+01
2.609845147E+01  3.446219254E+01
2.611774487E+01  3.611028671E+01
2.613703827E+01  4.220645142E+01
2.615633167E+01  4.853806686E+01
2.617562507E+01  5.723901367E+01
2.619491847E+01  6.014733124E+01
2.621421186E+01  6.387479782E+01
2.623350526E+01  6.590921021E+01
2.625279866E+01  6.808532715E+01
2.627209206E+01  6.734194946E+01
2.629138546E+01  6.712107086E+01
2.631067886E+01  6.704243469E+01
2.632997225E+01  6.758688354E+01
2.634926565E+01  6.191418839E+01
2.636855905E+01  6.198125839E+01
2.638785245E+01  6.099862671E+01
2.640714585E+01  6.379422379E+01
2.642643925E+01  6.708535004E+01
2.644573264E+01  7.260730743E+01
2.646502604E+01  7.611927032E+01
2.648431944E+01  7.700705719E+01
2.650361284E+01  7.878528595E+01
2.652290624E+01  8.233641815E+01
2.654219964E+01  8.406821442E+01
2.656149303E+01  8.496080017E+01
2.658078643E+01  8.638752747E+01
2.660007983E+01  9.028655243E+01
2.661937323E+01  9.444477081E+01
2.663866663E+01  9.173416138E+01
2.665796003E+01  8.680120087E+01
2.667725342E+01  8.588182831E+01
2.669654682E+01  8.572356415E+01
2.671584022E+01  8.783866119E+01
2.673513362E+01  8.535862732E+01
2.675442702E+01  8.748805237E+01
2.677372042E+01  8.869017792E+01
2.679301381E+01  8.927333832E+01
2.681230721E+01  8.507940674E+01
2.683160061E+01  8.692257690E+01
2.685089401E+01  9.080367279E+01
2.687018741E+01  9.424881744E+01
2.688948081E+01  9.450035858E+01
2.690877420E+01  9.587796783E+01
2.692806760E+01  9.778399658E+01
2.694736100E+01  9.668302155E+01
2.696665440E+01  9.507817841E+01
2.698594780E+01  9.868740845E+01
2.700524120E+01  1.013590393E+02
2.702453459E+01  1.048782120E+02
2.704382799E+01  1.108904266E+02
2.706312139E+01  1.218093262E+02
2.708241479E+01  1.357532349E+02
2.710170819E+01  1.453378601E+02
2.712100159E+01  1.452344666E+02
2.714029498E+01  1.389593811E+02
2.715958838E+01  1.200339890E+02
2.717888178E+01  8.060627747E+01
2.719817518E+01  5.499285126E+01
2.721746858E+01  4.068383408E+01
2.723676198E+01  2.109334946E+01
2.725605537E+01  3.476632309E+01
2.727534877E+01  5.580059814E+01
2.729464217E+01  7.264820099E+01
2.731393557E+01  1.029532318E+02
2.733322897E+01  1.450743256E+02
2.735252237E+01  1.896473694E+02
2.737181576E+01  2.132024536E+02
2.739110916E+01  2.226169434E+02
2.741040256E+01  2.253975220E+02
2.742969596E+01  2.257230530E+02
2.744898936E+01  2.075861816E+02
2.746828276E+01  1.545091858E+02
2.748757615E+01  1.345536499E+02
2.750686955E+01  2.450274963E+02
2.752616295E+01  3.143499146E+02
2.754545635E+01  2.854339905E+02
2.756474975E+01  2.394129028E+02
2.758404315E+01  1.976440277E+02
2.760333654E+01  1.599795227E+02
2.762262994E+01  1.225482254E+02
2.764192334E+01  1.069987640E+02
2.766121674E+01  1.004929733E+02
2.768051014E+01  9.127255249E+01
2.769980354E+01  7.939482117E+01
2.771909693E+01  6.760581970E+01
2.773839033E+01  6.300530624E+01
2.775768373E+01  5.995300674E+01
2.777697713E+01  5.970070648E+01
2.779627053E+01  6.029653931E+01
2.781556393E+01  5.777618790E+01
2.783485732E+01  5.592752075E+01
2.785415072E+01  5.635630798E+01
2.787344412E+01  5.919425583E+01
2.789273752E+01  5.812369156E+01
2.791203092E+01  5.646208191E+01
2.793132432E+01  5.169528198E+01
2.795061771E+01  5.206472778E+01
2.796991111E+01  5.268053055E+01
2.798920451E+01  5.622025681E+01
2.800849791E+01  5.670925522E+01
2.802779131E+01  5.938496017E+01
2.804708471E+01  5.613005447E+01
2.806637810E+01  5.312144470E+01
2.808567150E+01  5.139426422E+01
2.810496490E+01  4.692028046E+01
2.812425830E+01  4.137844849E+01
2.814355170E+01  4.096156311E+01
2.816284510E+01  4.553815460E+01
2.818213849E+01  4.706337738E+01
2.820143189E+01  4.937320709E+01
2.822072529E+01  4.781697845E+01
2.824001869E+01  5.253912354E+01
2.825931209E+01  5.313000107E+01
2.827860549E+01  4.807189178E+01
2.829789888E+01  4.160686493E+01
2.831719228E+01  4.270180130E+01
2.833648568E+01  4.421236038E+01
2.835577908E+01  4.419931793E+01
2.837507248E+01  4.307420731E+01
2.839436588E+01  3.784215546E+01
2.841365927E+01  3.519819260E+01
2.843295267E+01  3.575691605E+01
2.845224607E+01  3.806383896E+01
2.847153947E+01  3.469076920E+01
2.849083287E+01  3.961609650E+01
2.851012627E+01  4.040805435E+01
2.852941966E+01  4.624031448E+01
2.854871306E+01  5.162800598E+01
2.856800646E+01  6.512206268E+01
2.858729986E+01  7.815880585E+01
2.860659326E+01  8.913374329E+01
2.862588665E+01  9.839381409E+01
2.864518005E+01  1.064364166E+02
2.866447345E+01  1.173170624E+02
2.868376685E+01  1.283435516E+02
2.870306025E+01  1.398462372E+02
2.872235365E+01  1.547220764E+02
2.874164704E+01  1.589725342E+02
2.876094044E+01  1.511837311E+02
2.878023384E+01  1.338904724E+02
2.879952724E+01  1.116743393E+02
2.881882064E+01  8.677700806E+01
2.883811404E+01  7.569561005E+01
2.885740743E+01  7.191191864E+01
2.887670083E+01  7.158364105E+01
2.889599423E+01  7.416726685E+01
2.891528763E+01  7.366956329E+01
2.893458103E+01  7.081081390E+01
2.895387443E+01  6.251469040E+01
2.897316782E+01  5.737308121E+01
2.899246122E+01  5.365993881E+01
2.901175462E+01  5.226496506E+01
2.903104802E+01  5.398314285E+01
2.905034142E+01  5.067557144E+01
2.906963482E+01  4.776005554E+01
2.908892821E+01  4.310377884E+01
2.910822161E+01  4.956610489E+01
2.912751501E+01  5.388151550E+01
2.914680841E+01  4.281187439E+01
2.916610181E+01  3.242922592E+01
2.918539521E+01  2.898219872E+01
2.920468860E+01  3.255392075E+01
2.922398200E+01  3.432810593E+01
2.924327540E+01  3.909248734E+01
2.926256880E+01  3.864082336E+01
2.928186220E+01  3.395529175E+01
2.930115560E+01  3.154383278E+01
2.932044899E+01  3.204077530E+01
2.933974239E+01  2.997922897E+01
2.935903579E+01  2.252024651E+01
2.937832919E+01  1.990187454E+01
2.939762259E+01  2.540600777E+01
2.941691599E+01  2.637433243E+01
2.943620938E+01  2.504043388E+01
2.945550278E+01  2.236993217E+01
2.947479618E+01  2.109112740E+01
2.949408958E+01  8.236422539E+00
2.951338298E+01  1.118486047E+00
2.953267638E+01  -2.758093119E+00
2.955196977E+01  2.074055195E+00
2.957126317E+01  3.730474472E+00
2.959055657E+01  1.196423817E+01
2.960984997E+01  8.582175255E+00
2.962914337E+01  6.508824825E+00
2.964843677E+01  -6.241585732E+00
2.966773016E+01  -9.345965385E+00
2.968702356E+01  -4.900470734E+00
2.970631696E+01  -5.584343150E-02
2.972561036E+01  5.143661499E+00
2.974490376E+01  4.337121964E+00
2.976419716E+01  2.204074562E-01
2.978349055E+01  -5.434188366E+00
2.980278395E+01  2.087152481E+00
