4.249370432E+00  7.787985325E+00
4.268728273E+00  4.090263844E+00
4.288086114E+00  3.635018349E+00
4.307443955E+00  1.784532785E+00
4.326801796E+00  4.997234821E+00
4.346159638E+00  5.668751240E+00
4.365517479E+00  6.974770069E+00
4.384875320E+00  4.634086132E+00
4.404233161E+00  4.056883812E+00
4.423591002E+00  3.732630730E+00
4.442948843E+00  3.462346315E+00
4.462306684E+00  2.618852377E+00
4.481664525E+00  2.213229179E+00
4.501022366E+00  2.885909319E+00
4.520380207E+00  2.347487688E+00
4.539738048E+00  2.315792322E+00
4.559095889E+00  1.122084379E+00
4.578453730E+00  1.355698109E-01
4.597811571E+00  -6.195785999E-01
4.617169413E+00  2.498939335E-01
4.636527254E+00  -4.589774311E-01
4.655885095E+00  1.936261058E+00
4.675242936E+00  4.626052856E+00
4.694600777E+00  7.061732292E+00
4.713958618E+00  6.986348629E+00
4.733316459E+00  6.533556461E+00
4.752674300E+00  6.418829918E+00
4.772032141E+00  5.914967537E+00
4.791389982E+00  5.337509632E+00
4.810747823E+00  2.600656509E+00
4.830105664E+00  3.173274517E+00
4.849463505E+00  3.508003473E+00
4.868821347E+00  4.596518993E+00
4.888179188E+00  8.290832520E+00
4.907537029E+00  8.627906799E+00
4.926894870E+00  8.488864899E+00
4.946252711E+00  6.551501274E+00
4.965610552E+00  5.749448299E+00
4.984968393E+00  3.836366177E+00
5.004326234E+00  2.579051733E+00
5.023684075E+00  2.666123390E+00
5.043041916E+00  2.558406293E-01
5.062399757E+00  1.593472719E+00
5.081757598E+00  1.188518703E-01
5.101115439E+00  -2.605980039E-01
5.120473280E+00  -1.302903891E-01
5.139831122E+00  9.724987745E-01
5.159188963E+00  4.180356026E+00
5.178546804E+00  6.536780834E+00
5.197904645E+00  9.245970726E+00
5.217262486E+00  6.336620331E+00
5.236620327E+00  2.716053247E+00
5.255978168E+00  1.806190312E-01
5.275336009E+00  -7.948892117E-01
5.294693850E+00  -3.058124781E+00
5.314051691E+00  -3.087710857E+00
5.333409532E+00  -4.409364164E-01
5.352767373E+00  3.260459661E+00
5.372125214E+00  2.646504164E+00
5.391483055E+00  1.073172212E+00
5.410840897E+00  1.363666296E+00
5.430198738E+00  2.821439028E+00
5.449556579E+00  3.124578238E+00
5.468914420E+00  2.872551441E+00
5.488272261E+00  4.469397068E+00
5.507630102E+00  2.874366045E+00
5.526987943E+00  3.449991465E+00
5.546345784E+00  2.128787041E+00
5.565703625E+00  4.233765602E+00
5.585061466E+00  4.606595516E+00
5.604419307E+00  5.660578251E+00
5.623777148E+00  7.468303680E+00
5.643134989E+00  6.243607521E+00
5.662492830E+00  3.549368143E+00
5.681850672E+00  1.211367846E+00
5.701208513E+00  1.323037148E-01
5.720566354E+00  2.390717983E+00
5.739924195E+00  4.145837784E+00
5.759282036E+00  5.985775948E+00
5.778639877E+00  3.716161013E+00
5.797997718E+00  1.272056937E+00
5.817355559E+00  -4.492229521E-01
5.836713400E+00  2.051457167E-01
5.856071241E+00  2.482768893E-01
5.875429082E+00  1.813866258E+00
5.894786923E+00  3.079563856E+00
5.914144764E+00  3.318514109E+00
5.933502605E+00  2.639123201E+00
5.952860447E+00  2.577802241E-01
5.972218288E+00  -2.948350906E-01
5.991576129E+00  1.653889775E+00
6.010933970E+00  3.776166201E+00
6.030291811E+00  7.194239616E+00
6.049649652E+00  5.981601715E+00
6.069007493E+00  4.545304775E+00
6.088365334E+00  2.026092291E+00
6.107723175E+00  1.800582767E+00
6.127081016E+00  3.223439217E+00
6.146438857E+00  4.430084705E+00
6.165796698E+00  5.339859962E+00
6.185154539E+00  6.343748093E+00
6.204512380E+00  5.074133873E+00
6.223870222E+00  5.303956032E+00
6.243228063E+00  5.441812515E+00
6.262585904E+00  5.772913933E+00
6.281943745E+00  4.908289909E+00
6.301301586E+00  5.349725246E+00
6.320659427E+00  6.025640488E+00
6.340017268E+00  7.659741879E+00
6.359375109E+00  7.483667850E+00
6.378732950E+00  8.092945099E+00
6.398090791E+00  6.569799423E+00
6.417448632E+00  5.517091751E+00
6.436806473E+00  4.634992123E+00
6.456164314E+00  2.397254944E+00
6.475522155E+00  1.086145759E+00
6.494879997E+00  -8.271766901E-01
6.514237838E+00  1.109835148E+00
6.533595679E+00  2.610917568E+00
6.552953520E+00  2.936410904E+00
6.572311361E+00  6.225247979E-01
6.591669202E+00  -5.542920828E-01
6.611027043E+00  2.447098680E-02
6.630384884E+00  -3.590648174E-01
6.649742725E+00  1.745758951E-02
6.669100566E+00  1.388177991E+00
6.688458407E+00  2.128426075E+00
6.707816248E+00  3.587360382E-01
6.727174089E+00  -2.221352756E-01
6.746531930E+00  -7.764092088E-01
6.765889772E+00  -2.053596973E+00
6.785247613E+00  -8.182286024E-01
6.804605454E+00  3.032267988E-01
6.823963295E+00  6.175287962E-01
6.843321136E+00  6.503107548E-01
6.862678977E+00  -3.579364624E-03
6.882036818E+00  1.482871175E-01
6.901394659E+00  9.131523371E-01
6.920752500E+00  7.006641626E-01
6.940110341E+00  1.817059278E+00
6.959468182E+00  1.431708694E+00
6.978826023E+00  1.763144374E+00
6.998183864E+00  1.303904414E+00
7.017541705E+00  1.535610914E+00
7.036899547E+00  1.838434041E-01
7.056257388E+00  4.525035322E-01
7.075615229E+00  3.978286982E-01
7.094973070E+00  2.435673475E-01
7.114330911E+00  -1.689587235E+00
7.133688752E+00  -1.584254438E-03
7.153046593E+00  1.803576827E+00
7.172404434E+00  7.765787840E-01
7.191762275E+00  4.925055802E-01
7.211120116E+00  6.003962755E-01
7.230477957E+00  1.334469676E+00
7.249835798E+00  1.326131344E+00
7.269193639E+00  1.034145951E+00
7.288551480E+00  1.601811647E+00
7.307909322E+00  1.921412110E+00
7.327267163E+00  1.240905404E+00
7.346625004E+00  4.930256307E-01
7.365982845E+00  -1.199832201E+00
7.385340686E+00  -1.355443835E+00
7.404698527E+00  -7.144976407E-02
7.424056368E+00  9.062899351E-01
7.443414209E+00  1.680038691E+00
7.462772050E+00  2.807008661E-02
7.482129891E+00  8.250843883E-01
7.501487732E+00  -2.575889230E-01
7.520845573E+00  5.944517851E-01
7.540203414E+00  5.701333284E-01
7.559561256E+00  1.111333728E+00
7.578919097E+00  7.061032057E-01
7.598276938E+00  -7.568355799E-01
7.617634779E+00  -1.187542558E+00
7.636992620E+00  -1.601004481E+00
7.656350461E+00  -6.593643427E-01
7.675708302E+00  7.983009219E-01
7.695066143E+00  -7.532905936E-01
7.714423984E+00  -5.534520745E-01
7.733781825E+00  -6.189990640E-01
7.753139666E+00  1.427385569E+00
7.772497507E+00  1.588112593E+00
7.791855348E+00  7.887846231E-01
7.811213189E+00  -5.202392936E-01
7.830571031E+00  1.244382560E-01
7.849928872E+00  1.602085352E+00
7.869286713E+00  5.240015388E-01
7.888644554E+00  1.448603988E+00
7.908002395E+00  1.974930048E+00
7.927360236E+00  2.485065222E+00
7.946718077E+00  3.859226704E+00
7.966075918E+00  4.074388981E+00
7.985433759E+00  5.166924953E+00
8.004791600E+00  4.813165188E+00
8.024149441E+00  6.709026814E+00
8.043507282E+00  9.614195824E+00
8.062865123E+00  1.390924644E+01
8.082222964E+00  1.654142952E+01
8.101580806E+00  1.815406036E+01
8.120938647E+00  1.911336136E+01
8.140296488E+00  2.246475029E+01
8.159654329E+00  2.314425087E+01
8.179012170E+00  2.195505142E+01
8.198370011E+00  1.893370056E+01
8.217727852E+00  1.898925209E+01
8.237085693E+00  2.064129829E+01
8.256443534E+00  2.266741562E+01
8.275801375E+00  2.612073135E+01
8.295159216E+00  2.986238670E+01
8.314517057E+00  3.481006622E+01
8.333874898E+00  3.864646912E+01
8.353232739E+00  4.308274460E+01
8.372590581E+00  4.583871078E+01
8.391948422E+00  4.964136505E+01
8.411306263E+00  4.952469635E+01
8.430664104E+00  4.961995697E+01
8.450021945E+00  4.750088120E+01
8.469379786E+00  4.559895325E+01
8.488737627E+00  4.435746384E+01
8.508095468E+00  4.060235596E+01
8.527453309E+00  3.660961151E+01
8.546811150E+00  3.192678070E+01
8.566168991E+00  2.850530243E+01
8.585526832E+00  2.419270134E+01
8.604884673E+00  2.127092171E+01
8.624242514E+00  1.663649750E+01
8.643600356E+00  1.249490356E+01
8.662958197E+00  8.264119148E+00
8.682316038E+00  6.945485115E+00
8.701673879E+00  6.069757462E+00
8.721031720E+00  4.818938255E+00
8.740389561E+00  2.116130590E+00
8.759747402E+00  -2.081947923E-01
8.779105243E+00  -5.314238667E-01
8.798463084E+00  1.869430393E-01
8.817820925E+00  -6.881991774E-02
8.837178766E+00  1.629102349E+00
8.856536607E+00  4.324440002E+00
8.875894448E+00  8.951750755E+00
8.895252289E+00  1.288916683E+01
8.914610131E+00  2.012344360E+01
8.933967972E+00  3.142111397E+01
8.953325813E+00  4.422351837E+01
8.972683654E+00  5.929207993E+01
8.992041495E+00  7.202838135E+01
9.011399336E+00  8.109722900E+01
9.030757177E+00  8.408753967E+01
9.050115018E+00  7.671499634E+01
9.069472859E+00  5.945559311E+01
9.088830700E+00  3.673536682E+01
9.108188541E+00  2.265423965E+01
9.127546382E+00  1.941501999E+01
9.146904223E+00  2.045253944E+01
9.166262064E+00  1.697174835E+01
9.185619906E+00  1.042819881E+01
9.204977747E+00  7.995567322E+00
9.224335588E+00  6.830559731E+00
9.243693429E+00  6.101476669E+00
9.263051270E+00  4.559751034E+00
9.282409111E+00  1.556061268E+00
9.301766952E+00  -1.118355632E+00
9.321124793E+00  -1.765884519E+00
9.340482634E+00  -1.285704732E+00
9.359840475E+00  -4.003533721E-01
9.379198316E+00  -2.015589237E+00
9.398556157E+00  -3.431087732E+00
9.417913998E+00  -6.629993916E+00
9.437271839E+00  -4.551874638E+00
9.456629681E+00  -4.947701931E+00
9.475987522E+00  -3.332248211E+00
9.495345363E+00  -3.120567322E+00
9.514703204E+00  -2.836737633E+00
9.534061045E+00  -2.900732756E+00
9.553418886E+00  -3.497567415E+00
9.572776727E+00  -8.944414258E-01
9.592134568E+00  2.046559095E+00
9.611492409E+00  4.281541348E+00
9.630850250E+00  7.544027805E+00
9.650208091E+00  8.529033661E+00
9.669565932E+00  1.118041325E+01
9.688923773E+00  1.556243229E+01
9.708281614E+00  2.191128159E+01
9.727639456E+00  3.062847328E+01
9.746997297E+00  3.865486145E+01
9.766355138E+00  4.858269501E+01
9.785712979E+00  5.756283951E+01
9.805070820E+00  6.957453918E+01
9.824428661E+00  7.958142853E+01
9.843786502E+00  9.120755005E+01
9.863144343E+00  1.002703094E+02
9.882502184E+00  1.102797165E+02
9.901860025E+00  1.171386108E+02
9.921217866E+00  1.211794968E+02
9.940575707E+00  1.229438553E+02
9.959933548E+00  1.196345139E+02
9.979291389E+00  1.145074921E+02
9.998649231E+00  1.052228622E+02
1.001800707E+01  9.715817261E+01
1.003736491E+01  8.573976898E+01
1.005672275E+01  7.422820282E+01
1.007608059E+01  6.349116898E+01
1.009543844E+01  5.186238480E+01
1.011479628E+01  4.326000977E+01
1.013415412E+01  3.363927460E+01
1.015351196E+01  2.659135818E+01
1.017286980E+01  1.900868225E+01
1.019222764E+01  1.309978485E+01
1.021158548E+01  7.723814964E+00
1.023094332E+01  4.683241844E+00
1.025030116E+01  1.206532478E+00
1.026965901E+01  -6.206982732E-01
1.028901685E+01  -1.848605514E+00
1.030837469E+01  -1.216333985E+00
1.032773253E+01  -2.434731722E+00
1.034709037E+01  -2.668280363E+00
1.036644821E+01  -2.517759800E+00
1.038580605E+01  -3.950009048E-01
1.040516389E+01  4.413151741E+00
1.042452173E+01  9.947235107E+00
1.044387958E+01  1.623654747E+01
1.046323742E+01  1.896614075E+01
1.048259526E+01  2.007228661E+01
1.050195310E+01  2.242631149E+01
1.052131094E+01  2.837342072E+01
1.054066878E+01  4.090798950E+01
1.056002662E+01  5.268284988E+01
1.057938446E+01  6.192285538E+01
1.059874230E+01  6.666488647E+01
1.061810014E+01  7.118849945E+01
1.063745799E+01  7.614925385E+01
1.065681583E+01  8.331914520E+01
1.067617367E+01  9.050147247E+01
1.069553151E+01  9.869872284E+01
1.071488935E+01  1.057977066E+02
1.073424719E+01  1.122194138E+02
1.075360503E+01  1.191241074E+02
1.077296287E+01  1.283178101E+02
1.079232071E+01  1.410186615E+02
1.081167856E+01  1.527390137E+02
1.083103640E+01  1.657949219E+02
1.085039424E+01  1.775569305E+02
1.086975208E+01  1.904023743E+02
1.088910992E+01  2.036151123E+02
1.090846776E+01  2.162946930E+02
1.092782560E+01  2.267237396E+02
1.094718344E+01  2.350452423E+02
1.096654128E+01  2.383799744E+02
1.098589913E+01  2.372781372E+02
1.100525697E+01  2.304007568E+02
1.102461481E+01  2.218688202E+02
1.104397265E+01  2.073931274E+02
1.106333049E+01  1.908751373E+02
1.108268833E+01  1.714682465E+02
1.110204617E+01  1.527838135E+02
1.112140401E+01  1.344434509E+02
1.114076185E+01  1.167337570E+02
1.116011969E+01  9.951283264E+01
1.117947754E+01  8.450714874E+01
1.119883538E+01  7.347414398E+01
1.121819322E+01  6.561187744E+01
1.123755106E+01  6.163961411E+01
1.125690890E+01  6.023798370E+01
1.127626674E+01  6.003361130E+01
1.129562458E+01  6.249315643E+01
1.131498242E+01  6.573678589E+01
1.133434026E+01  7.312313843E+01
1.135369811E+01  7.877518463E+01
1.137305595E+01  8.679069519E+01
1.139241379E+01  9.387186432E+01
1.141177163E+01  1.066661377E+02
1.143112947E+01  1.210889664E+02
1.145048731E+01  1.368626099E+02
1.146984515E+01  1.507500305E+02
1.148920299E+01  1.647287445E+02
1.150856083E+01  1.801313934E+02
1.152791868E+01  1.965745392E+02
1.154727652E+01  2.127786255E+02
1.156663436E+01  2.266300964E+02
1.158599220E+01  2.369989471E+02
1.160535004E+01  2.455627289E+02
1.162470788E+01  2.485016632E+02
1.164406572E+01  2.468759613E+02
1.166342356E+01  2.374494934E+02
1.168278140E+01  2.265897522E+02
1.170213924E+01  2.106117401E+02
1.172149709E+01  1.951475372E+02
1.174085493E+01  1.766160583E+02
1.176021277E+01  1.567281647E+02
1.177957061E+01  1.368594971E+02
1.179892845E+01  1.201451416E+02
1.181828629E+01  1.025522385E+02
1.183764413E+01  8.732157135E+01
1.185700197E+01  7.295243835E+01
1.187635981E+01  6.166046143E+01
1.189571766E+01  5.241147614E+01
1.191507550E+01  4.338079071E+01
1.193443334E+01  3.700275803E+01
1.195379118E+01  3.231328964E+01
1.197314902E+01  3.009538460E+01
1.199250686E+01  2.856100655E+01
1.201186470E+01  2.698610878E+01
1.203122254E+01  2.497870064E+01
1.205058038E+01  2.417708969E+01
1.206993823E+01  2.194374084E+01
1.208929607E+01  2.096488762E+01
1.210865391E+01  2.076176834E+01
1.212801175E+01  1.961030006E+01
1.214736959E+01  1.801399422E+01
1.216672743E+01  1.676791763E+01
1.218608527E+01  1.515547752E+01
1.220544311E+01  1.371428776E+01
1.222480095E+01  1.178696060E+01
1.224415879E+01  9.818224907E+00
1.226351664E+01  7.561227322E+00
1.228287448E+01  6.718892574E+00
1.230223232E+01  4.910234451E+00
1.232159016E+01  3.917428255E+00
1.234094800E+01  -2.136026770E-01
1.236030584E+01  -1.865079999E+00
1.237966368E+01  -1.400835633E+00
1.239902152E+01  1.573190331E+00
1.241837936E+01  3.875698328E+00
1.243773721E+01  6.076933861E+00
1.245709505E+01  7.480131626E+00
1.247645289E+01  1.012566662E+01
1.249581073E+01  1.288309574E+01
1.251516857E+01  1.533298874E+01
1.253452641E+01  1.882430267E+01
1.255388425E+01  2.172340393E+01
1.257324209E+01  2.577783585E+01
1.259259993E+01  2.927452087E+01
1.261195778E+01  3.258467102E+01
1.263131562E+01  3.691624832E+01
1.265067346E+01  4.011056519E+01
1.267003130E+01  4.268429565E+01
1.268938914E+01  4.284899139E+01
1.270874698E+01  4.466782379E+01
1.272810482E+01  4.602652359E+01
1.274746266E+01  4.725471878E+01
1.276682050E+01  4.766766739E+01
1.278617834E+01  4.664733124E+01
1.280553619E+01  4.490748596E+01
1.282489403E+01  4.405256653E+01
1.284425187E+01  4.395607376E+01
1.286360971E+01  4.283285141E+01
1.288296755E+01  3.865702438E+01
1.290232539E+01  3.638370514E+01
1.292168323E+01  3.469603348E+01
1.294104107E+01  3.277032852E+01
1.296039891E+01  3.132196426E+01
1.297975676E+01  3.027432823E+01
1.299911460E+01  2.966408539E+01
1.301847244E+01  2.881303787E+01
1.303783028E+01  2.993019104E+01
1.305718812E+01  3.265909958E+01
1.307654596E+01  3.698606491E+01
1.309590380E+01  4.367471695E+01
1.311526164E+01  5.207531738E+01
1.313461948E+01  6.039650726E+01
1.315397733E+01  7.037788391E+01
1.317333517E+01  8.062108612E+01
1.319269301E+01  9.065590668E+01
1.321205085E+01  1.019986954E+02
1.323140869E+01  1.150216980E+02
1.325076653E+01  1.330004425E+02
1.327012437E+01  1.509064331E+02
1.328948221E+01  1.708825226E+02
1.330884005E+01  1.917162781E+02
1.332819789E+01  2.123849335E+02
1.334755574E+01  2.354080963E+02
1.336691358E+01  2.561683960E+02
1.338627142E+01  2.786646118E+02
1.340562926E+01  2.990821838E+02
1.342498710E+01  3.159737244E+02
1.344434494E+01  3.275851135E+02
1.346370278E+01  3.329974365E+02
1.348306062E+01  3.368893127E+02
1.350241846E+01  3.348872986E+02
1.352177631E+01  3.271403503E+02
1.354113415E+01  3.143511047E+02
1.356049199E+01  2.997233276E+02
1.357984983E+01  2.841246033E+02
1.359920767E+01  2.633295593E+02
1.361856551E+01  2.421605072E+02
1.363792335E+01  2.208063049E+02
1.365728119E+01  2.003945160E+02
1.367663903E+01  1.778217010E+02
1.369599688E+01  1.595944214E+02
1.371535472E+01  1.419343567E+02
1.373471256E+01  1.252988739E+02
1.375407040E+01  1.115538177E+02
1.377342824E+01  9.963062286E+01
1.379278608E+01  8.813499451E+01
1.381214392E+01  8.019799042E+01
1.383150176E+01  7.562248230E+01
1.385085960E+01  7.379553986E+01
1.387021744E+01  7.250555420E+01
1.388957529E+01  7.197374725E+01
1.390893313E+01  7.399037933E+01
1.392829097E+01  7.934664917E+01
1.394764881E+01  8.732445526E+01
1.396700665E+01  9.558504486E+01
1.398636449E+01  1.062036896E+02
1.400572233E+01  1.217307510E+02
1.402508017E+01  1.393241882E+02
1.404443801E+01  1.609251556E+02
1.406379586E+01  1.854369507E+02
1.408315370E+01  2.115140228E+02
1.410251154E+01  2.363298798E+02
1.412186938E+01  2.600291748E+02
1.414122722E+01  2.783023987E+02
1.416058506E+01  2.887890320E+02
1.417994290E+01  2.942276917E+02
1.419930074E+01  2.929479675E+02
1.421865858E+01  2.878856201E+02
1.423801643E+01  2.785362549E+02
1.425737427E+01  2.472530823E+02
1.427673211E+01  2.153983459E+02
1.429608995E+01  2.561359863E+02
1.431544779E+01  2.389849854E+02
1.433480563E+01  3.012808533E+02
1.435416347E+01  3.765332031E+02
1.437352131E+01  5.427723999E+02
1.439287915E+01  6.739825439E+02
1.441223699E+01  7.349953003E+02
1.443159484E+01  7.911022949E+02
1.445095268E+01  8.004063721E+02
1.447031052E+01  8.023312988E+02
1.448966836E+01  6.752034302E+02
1.450902620E+01  5.669472046E+02
1.452838404E+01  4.284096680E+02
1.454774188E+01  2.627601929E+02
1.456709972E+01  1.681252594E+02
1.458645756E+01  5.280868912E+01
1.460581541E+01  6.268503952E+01
1.462517325E+01  5.309394073E+01
1.464453109E+01  3.413159180E+01
1.466388893E+01  2.842762756E+01
1.468324677E+01  2.169906235E+01
1.470260461E+01  1.816509056E+01
1.472196245E+01  1.663400841E+01
1.474132029E+01  1.239992619E+01
1.476067813E+01  1.310997581E+01
1.478003598E+01  1.636927986E+01
1.479939382E+01  2.083373451E+01
1.481875166E+01  1.542313671E+01
1.483810950E+01  1.046279716E+01
1.485746734E+01  2.411563396E+00
1.487682518E+01  -4.105217457E+00
1.489618302E+01  -5.379436493E+00
1.491554086E+01  1.570939302E+00
1.493489870E+01  9.100749016E+00
1.495425654E+01  1.157655525E+01
1.497361439E+01  9.892270088E+00
1.499297223E+01  9.568525314E+00
1.501233007E+01  8.538318634E+00
1.503168791E+01  7.293746948E+00
1.505104575E+01  6.785663605E+00
1.507040359E+01  8.465677261E+00
1.508976143E+01  1.032204437E+01
1.510911927E+01  8.857451439E+00
1.512847711E+01  4.017733574E+00
1.514783496E+01  6.703923941E-01
1.516719280E+01  -1.751358509E+00
1.518655064E+01  -2.084038258E+00
1.520590848E+01  -1.433650851E+00
1.522526632E+01  -6.783674359E-01
1.524462416E+01  -3.579271138E-01
1.526398200E+01  -1.028857231E+00
1.528333984E+01  -1.536687255E+00
1.530269768E+01  -7.908470631E-01
1.532205553E+01  6.517044455E-02
1.534141337E+01  1.092289329E+00
1.536077121E+01  1.623725295E+00
1.538012905E+01  3.188572884E+00
1.539948689E+01  3.268156290E+00
1.541884473E+01  5.900525093E+00
1.543820257E+01  7.939245224E+00
1.545756041E+01  9.695737839E+00
1.547691825E+01  1.000837040E+01
1.549627610E+01  1.164407539E+01
1.551563394E+01  1.355396271E+01
1.553499178E+01  1.512625504E+01
1.555434962E+01  1.299439240E+01
1.557370746E+01  1.137517357E+01
1.559306530E+01  1.100014591E+01
1.561242314E+01  1.370277405E+01
1.563178098E+01  1.498313046E+01
1.565113882E+01  1.391903210E+01
1.567049666E+01  1.280642414E+01
1.568985451E+01  1.069379902E+01
1.570921235E+01  8.716182709E+00
1.572857019E+01  5.307782173E+00
1.574792803E+01  5.704667568E+00
1.576728587E+01  3.849559307E+00
1.578664371E+01  3.163551807E+00
1.580600155E+01  -5.669227242E-01
1.582535939E+01  -9.093357921E-01
1.584471723E+01  -1.175201297E+00
1.586407508E+01  -1.984775782E+00
1.588343292E+01  -2.740693331E+00
1.590279076E+01  -3.527140141E+00
1.592214860E+01  -4.792229652E+00
1.594150644E+01  -4.599960804E+00
1.596086428E+01  -4.665864944E+00
1.598022212E+01  -4.803301334E+00
1.599957996E+01  -5.259642601E+00
1.601893780E+01  -2.446014643E+00
1.603829565E+01  4.560558498E-02
1.605765349E+01  1.429692030E+00
1.607701133E+01  1.937367558E+00
1.609636917E+01  4.420158386E+00
1.611572701E+01  9.474499702E+00
1.613508485E+01  1.262874031E+01
1.615444269E+01  1.651379395E+01
1.617380053E+01  2.012704468E+01
1.619315837E+01  2.536578941E+01
1.621251621E+01  2.813587189E+01
1.623187406E+01  3.235241699E+01
1.625123190E+01  3.585655594E+01
1.627058974E+01  3.912393188E+01
1.628994758E+01  4.256985855E+01
1.630930542E+01  4.623657227E+01
1.632866326E+01  5.082643509E+01
1.634802110E+01  5.570069122E+01
1.636737894E+01  6.186677933E+01
1.638673678E+01  6.762578583E+01
1.640609463E+01  7.344449615E+01
1.642545247E+01  8.330233002E+01
1.644481031E+01  9.432364655E+01
1.646416815E+01  1.068788147E+02
1.648352599E+01  1.172201996E+02
1.650288383E+01  1.214003754E+02
1.652224167E+01  1.350806732E+02
1.654159951E+01  1.719499664E+02
1.656095735E+01  1.878629608E+02
1.658031520E+01  2.334247894E+02
1.659967304E+01  2.924309082E+02
1.661903088E+01  3.782188110E+02
1.663838872E+01  4.406645813E+02
1.665774656E+01  5.335639038E+02
1.667710440E+01  6.026647339E+02
1.669646224E+01  6.410781250E+02
1.671582008E+01  6.345273438E+02
1.673517792E+01  5.786286011E+02
1.675453576E+01  4.645081787E+02
1.677389361E+01  3.591106262E+02
1.679325145E+01  3.115267639E+02
1.681260929E+01  3.607160645E+02
1.683196713E+01  4.192565918E+02
1.685132497E+01  2.915079651E+02
1.687068281E+01  2.370249939E+02
1.689004065E+01  1.890557098E+02
1.690939849E+01  1.517857971E+02
1.692875633E+01  1.263321609E+02
1.694811418E+01  1.116114120E+02
1.696747202E+01  1.016838531E+02
1.698682986E+01  9.349587250E+01
1.700618770E+01  8.631432343E+01
1.702554554E+01  7.919746399E+01
1.704490338E+01  7.461481476E+01
1.706426122E+01  7.104679108E+01
1.708361906E+01  6.677914429E+01
1.710297690E+01  6.535120392E+01
1.712233475E+01  6.459592438E+01
1.714169259E+01  6.425904083E+01
1.716105043E+01  6.289259720E+01
1.718040827E+01  6.195730591E+01
1.719976611E+01  5.838720322E+01
1.721912395E+01  5.439827347E+01
1.723848179E+01  4.974480057E+01
1.725783963E+01  4.700770187E+01
1.727719747E+01  4.277545547E+01
1.729655531E+01  4.084233856E+01
1.731591316E+01  3.890497208E+01
1.733527100E+01  3.580403519E+01
1.735462884E+01  3.230526733E+01
1.737398668E+01  2.821497154E+01
1.739334452E+01  2.566638374E+01
1.741270236E+01  2.346514893E+01
1.743206020E+01  1.901974869E+01
1.745141804E+01  1.060004997E+01
1.747077588E+01  3.991127014E+00
1.749013373E+01  5.338724136E+00
1.750949157E+01  1.254770184E+01
1.752884941E+01  1.715020943E+01
1.754820725E+01  1.522512341E+01
1.756756509E+01  1.053233433E+01
1.758692293E+01  8.924615860E+00
1.760628077E+01  8.316382408E+00
1.762563861E+01  7.296488762E+00
1.764499645E+01  5.014707088E+00
1.766435430E+01  1.302829266E+00
1.768371214E+01  -3.422254324E+00
1.770306998E+01  -4.959819794E+00
1.772242782E+01  -6.258167267E+00
1.774178566E+01  -5.957097054E+00
1.776114350E+01  -7.992156029E+00
1.778050134E+01  -7.116119385E+00
1.779985918E+01  -6.680970192E+00
1.781921702E+01  -7.031942368E+00
1.783857486E+01  -7.433543205E+00
1.785793271E+01  -7.620091915E+00
1.787729055E+01  -6.465152740E+00
1.789664839E+01  -6.045011044E+00
1.791600623E+01  -1.861819983E+00
1.793536407E+01  3.584132433E+00
1.795472191E+01  8.825183868E+00
1.797407975E+01  1.282936859E+01
1.799343759E+01  1.834319305E+01
1.801279543E+01  2.381276703E+01
1.803215328E+01  2.985988426E+01
1.805151112E+01  3.369729233E+01
1.807086896E+01  4.106911850E+01
1.809022680E+01  4.969837952E+01
1.810958464E+01  5.977891159E+01
1.812894248E+01  6.813992310E+01
1.814830032E+01  7.485804749E+01
1.816765816E+01  8.112012482E+01
1.818701600E+01  8.632547760E+01
1.820637385E+01  9.206518555E+01
1.822573169E+01  9.814279175E+01
1.824508953E+01  1.053377609E+02
1.826444737E+01  1.125602036E+02
1.828380521E+01  1.206548843E+02
1.830316305E+01  1.293889618E+02
1.832252089E+01  1.365183868E+02
1.834187873E+01  1.426429138E+02
1.836123657E+01  1.493159027E+02
1.838059441E+01  1.576310272E+02
1.839995226E+01  1.639209442E+02
1.841931010E+01  1.698007965E+02
1.843866794E+01  1.749640656E+02
1.845802578E+01  1.787533569E+02
1.847738362E+01  1.833955688E+02
1.849674146E+01  1.889160614E+02
1.851609930E+01  1.954766693E+02
1.853545714E+01  2.012181396E+02
1.855481498E+01  2.058665924E+02
1.857417283E+01  2.103729248E+02
1.859353067E+01  2.159572296E+02
1.861288851E+01  2.217904510E+02
1.863224635E+01  2.262850647E+02
1.865160419E+01  2.294799652E+02
1.867096203E+01  2.326411743E+02
1.869031987E+01  2.381134644E+02
1.870967771E+01  2.427829742E+02
1.872903555E+01  2.483103333E+02
1.874839340E+01  2.509505768E+02
1.876775124E+01  2.570568848E+02
1.878710908E+01  2.580004272E+02
1.880646692E+01  2.630401001E+02
1.882582476E+01  2.649398193E+02
1.884518260E+01  2.717720947E+02
1.886454044E+01  2.734459839E+02
1.888389828E+01  2.761130676E+02
1.890325612E+01  2.777945862E+02
1.892261396E+01  2.810419006E+02
1.894197181E+01  2.808548889E+02
1.896132965E+01  2.775609741E+02
1.898068749E+01  2.724223633E+02
1.900004533E+01  2.677834167E+02
1.901940317E+01  2.631055298E+02
1.903876101E+01  2.562211914E+02
1.905811885E+01  2.471566315E+02
1.907747669E+01  2.392218323E+02
1.909683453E+01  2.277544250E+02
1.911619238E+01  2.180199127E+02
1.913555022E+01  2.055633392E+02
1.915490806E+01  1.950664062E+02
1.917426590E+01  1.823876190E+02
1.919362374E+01  1.704837494E+02
1.921298158E+01  1.580489655E+02
1.923233942E+01  1.466274261E+02
1.925169726E+01  1.365019226E+02
1.927105510E+01  1.265520477E+02
1.929041295E+01  1.176683044E+02
1.930977079E+01  1.068868103E+02
1.932912863E+01  9.592158508E+01
1.934848647E+01  8.538793182E+01
1.936784431E+01  7.761419678E+01
1.938720215E+01  6.882466125E+01
1.940655999E+01  6.201942825E+01
1.942591783E+01  5.421123505E+01
1.944527567E+01  4.751141357E+01
1.946463351E+01  4.050928116E+01
1.948399136E+01  3.629364395E+01
1.950334920E+01  3.137247276E+01
1.952270704E+01  2.697199440E+01
1.954206488E+01  2.297468567E+01
1.956142272E+01  1.924715614E+01
1.958078056E+01  1.575539780E+01
1.960013840E+01  1.223373699E+01
1.961949624E+01  1.123415756E+01
1.963885408E+01  1.002767563E+01
1.965821193E+01  7.979837418E+00
1.967756977E+01  7.212103844E+00
1.969692761E+01  8.677782059E+00
1.971628545E+01  7.799730778E+00
1.973564329E+01  7.921294689E+00
1.975500113E+01  9.006992340E+00
1.977435897E+01  1.057099056E+01
1.979371681E+01  9.390732765E+00
1.981307465E+01  8.781357765E+00
1.983243250E+01  8.853761673E+00
1.985179034E+01  9.596390724E+00
1.987114818E+01  8.272216797E+00
1.989050602E+01  8.081581116E+00
1.990986386E+01  8.265717506E+00
1.992922170E+01  9.159486771E+00
1.994857954E+01  1.037399673E+01
1.996793738E+01  9.120823860E+00
1.998729522E+01  8.222023964E+00
2.000665306E+01  6.389185429E+00
2.002601091E+01  5.197309494E+00
2.004536875E+01  3.454191923E+00
2.006472659E+01  2.490465164E+00
2.008408443E+01  1.718677759E+00
2.010344227E+01  7.836850286E-01
2.012280011E+01  -9.910635948E-01
2.014215795E+01  -2.200449705E+00
2.016151579E+01  -2.317404747E+00
2.018087363E+01  -3.159954071E+00
2.020023148E+01  -4.358015537E+00
2.021958932E+01  -6.587047100E+00
2.023894716E+01  -7.561700344E+00
2.025830500E+01  -6.747494698E+00
2.027766284E+01  -6.547591209E+00
2.029702068E+01  -6.045469761E+00
2.031637852E+01  -5.688772678E+00
2.033573636E+01  -6.170169353E+00
2.035509420E+01  -5.918571949E+00
2.037445205E+01  -6.240009308E+00
2.039380989E+01  -3.768071175E+00
2.041316773E+01  -1.134081841E+00
2.043252557E+01  3.854353428E-01
2.045188341E+01  -1.473618895E-01
2.047124125E+01  -5.091305375E-01
2.049059909E+01  -4.901528060E-01
2.050995693E+01  2.525823832E+00
2.052931477E+01  6.721981049E+00
2.054867261E+01  1.055618858E+01
2.056803046E+01  1.230909252E+01
2.058738830E+01  1.162756729E+01
2.060674614E+01  1.220830441E+01
2.062610398E+01  1.538179016E+01
2.064546182E+01  1.996093369E+01
2.066481966E+01  2.259457779E+01
2.068417750E+01  2.474942398E+01
2.070353534E+01  2.672297478E+01
2.072289318E+01  2.713619614E+01
2.074225103E+01  2.802921867E+01
2.076160887E+01  2.863453293E+01
2.078096671E+01  3.117165184E+01
2.080032455E+01  3.284809113E+01
2.081968239E+01  3.554247284E+01
2.083904023E+01  3.802985764E+01
2.085839807E+01  3.953545761E+01
2.087775591E+01  3.852027512E+01
2.089711375E+01  3.997480392E+01
2.091647160E+01  4.034626770E+01
2.093582944E+01  4.179766083E+01
2.095518728E+01  4.269382858E+01
2.097454512E+01  4.422962570E+01
2.099390296E+01  4.362720871E+01
2.101326080E+01  4.235671234E+01
2.103261864E+01  4.157278442E+01
2.105197648E+01  4.175154495E+01
2.107133432E+01  4.197038651E+01
2.109069216E+01  3.861961746E+01
2.111005001E+01  3.444643021E+01
2.112940785E+01  3.381979370E+01
2.114876569E+01  3.662692642E+01
2.116812353E+01  3.576842499E+01
2.118748137E+01  3.376666641E+01
2.120683921E+01  3.195378876E+01
2.122619705E+01  3.005202484E+01
2.124555489E+01  2.776403999E+01
2.126491273E+01  2.496408081E+01
2.128427058E+01  2.318285942E+01
2.130362842E+01  2.075232506E+01
2.132298626E+01  1.776904297E+01
2.134234410E+01  1.403707027E+01
2.136170194E+01  1.204501724E+01
2.138105978E+01  1.056565189E+01
2.140041762E+01  8.347802162E+00
2.141977546E+01  7.529443741E+00
2.143913330E+01  4.856212616E+00
2.145849115E+01  2.523447275E+00
2.147784899E+01  1.507735610E+00
2.149720683E+01  2.146998167E+00
2.151656467E+01  4.210078418E-01
2.153592251E+01  -3.603727520E-01
2.155528035E+01  -6.619251966E-01
2.157463819E+01  -4.596435726E-01
2.159399603E+01  -4.973232448E-01
2.161335387E+01  -1.162289977E+00
2.163271171E+01  -3.309859991E+00
2.165206956E+01  -3.681061745E+00
2.167142740E+01  -7.371058464E-01
2.169078524E+01  1.483927608E+00
2.171014308E+01  3.430324078E+00
2.172950092E+01  5.624627113E+00
2.174885876E+01  6.973698139E+00
2.176821660E+01  7.858806610E+00
2.178757444E+01  8.113903046E+00
2.180693228E+01  8.410628319E+00
2.182629013E+01  9.571549416E+00
2.184564797E+01  1.035213947E+01
2.186500581E+01  1.243516445E+01
2.188436365E+01  1.334254932E+01
2.190372149E+01  1.543098164E+01
2.192307933E+01  1.623346519E+01
2.194243717E+01  1.803304672E+01
2.196179501E+01  1.792043495E+01
2.198115285E+01  1.823589897E+01
2.200051070E+01  1.975650787E+01
2.201986854E+01  2.389463234E+01
2.203922638E+01  2.764324379E+01
2.205858422E+01  2.879979515E+01
2.207794206E+01  3.079922104E+01
2.209729990E+01  3.333845520E+01
2.211665774E+01  3.676362610E+01
2.213601558E+01  4.060423660E+01
2.215537342E+01  4.493156815E+01
2.217473126E+01  4.935182953E+01
2.219408911E+01  5.303300858E+01
2.221344695E+01  5.678691483E+01
2.223280479E+01  5.850275803E+01
2.225216263E+01  5.956047440E+01
2.227152047E+01  6.112467957E+01
2.229087831E+01  6.266905975E+01
2.231023615E+01  6.410480499E+01
2.232959399E+01  6.667659760E+01
2.234895183E+01  6.883443451E+01
2.236830968E+01  7.160152435E+01
2.238766752E+01  7.150546265E+01
2.240702536E+01  7.126964569E+01
2.242638320E+01  7.130442810E+01
2.244574104E+01  7.105141449E+01
2.246509888E+01  6.970458984E+01
2.248445672E+01  6.770208740E+01
2.250381456E+01  6.581182098E+01
2.252317240E+01  6.381093216E+01
2.254253025E+01  6.227782440E+01
2.256188809E+01  6.104400635E+01
2.258124593E+01  5.920927048E+01
2.260060377E+01  5.547126770E+01
2.261996161E+01  5.137353897E+01
2.263931945E+01  4.814366913E+01
2.265867729E+01  4.560538864E+01
2.267803513E+01  4.331870270E+01
2.269739297E+01  4.163507462E+01
2.271675081E+01  3.924356461E+01
2.273610866E+01  3.767132187E+01
2.275546650E+01  3.609632874E+01
2.277482434E+01  3.448141861E+01
2.279418218E+01  3.270418930E+01
2.281354002E+01  3.305990219E+01
2.283289786E+01  3.307986832E+01
2.285225570E+01  3.436273575E+01
2.287161354E+01  3.365919876E+01
2.289097138E+01  3.320894623E+01
2.291032923E+01  3.293470764E+01
2.292968707E+01  3.416691208E+01
2.294904491E+01  3.413730621E+01
2.296840275E+01  3.527634811E+01
2.298776059E+01  3.676493835E+01
2.300711843E+01  3.711013031E+01
2.302647627E+01  3.719151306E+01
2.304583411E+01  3.943845367E+01
2.306519195E+01  4.401271820E+01
2.308454980E+01  4.846497726E+01
2.310390764E+01  5.127556610E+01
2.312326548E+01  5.412696457E+01
2.314262332E+01  5.598337555E+01
2.316198116E+01  5.907803726E+01
2.318133900E+01  6.224501419E+01
2.320069684E+01  6.657911682E+01
2.322005468E+01  6.798348999E+01
2.323941252E+01  7.035298920E+01
2.325877036E+01  7.046797180E+01
2.327812821E+01  7.087759399E+01
2.329748605E+01  7.215568542E+01
2.331684389E+01  7.526351929E+01
2.333620173E+01  7.825615692E+01
2.335555957E+01  7.823110962E+01
2.337491741E+01  7.808721161E+01
2.339427525E+01  7.806336975E+01
2.341363309E+01  8.098346710E+01
2.343299093E+01  8.528078461E+01
2.345234878E+01  9.205950928E+01
2.347170662E+01  1.005617676E+02
2.349106446E+01  1.128605194E+02
2.351042230E+01  1.222279587E+02
2.352978014E+01  1.340371094E+02
2.354913798E+01  1.529337006E+02
2.356849582E+01  1.806806793E+02
2.358785366E+01  2.065458374E+02
2.360721150E+01  2.137059631E+02
2.362656935E+01  2.047672424E+02
2.364592719E+01  2.200556030E+02
2.366528503E+01  2.570815125E+02
2.368464287E+01  2.821467590E+02
2.370400071E+01  2.877283325E+02
2.372335855E+01  2.816843567E+02
2.374271639E+01  2.637440186E+02
2.376207423E+01  2.299561005E+02
2.378143207E+01  1.831376190E+02
2.380078991E+01  1.382472076E+02
2.382014776E+01  9.487625122E+01
2.383950560E+01  8.080387878E+01
2.385886344E+01  7.552255249E+01
2.387822128E+01  6.798148346E+01
2.389757912E+01  5.261982346E+01
2.391693696E+01  3.863963699E+01
2.393629480E+01  2.826368332E+01
2.395565264E+01  1.997737312E+01
2.397501048E+01  1.352363968E+01
2.399436833E+01  9.781343460E+00
2.401372617E+01  6.573875427E+00
2.403308401E+01  4.905235767E+00
2.405244185E+01  4.527902126E+00
2.407179969E+01  4.805380821E+00
2.409115753E+01  4.602340698E+00
2.411051537E+01  5.064154625E+00
2.412987321E+01  5.322955608E+00
2.414923105E+01  3.202468872E+00
2.416858890E+01  2.791257620E+00
2.418794674E+01  2.685642958E+00
2.420730458E+01  3.378377199E+00
2.422666242E+01  4.020121098E+00
2.424602026E+01  5.279797554E+00
2.426537810E+01  5.424673557E+00
2.428473594E+01  3.218066692E+00
2.430409378E+01  2.342934132E+00
2.432345162E+01  3.420430899E+00
2.434280946E+01  4.615138531E+00
2.436216731E+01  4.310606480E+00
2.438152515E+01  3.076398611E+00
2.440088299E+01  3.820930958E+00
2.442024083E+01  2.326875448E+00
2.443959867E+01  2.448189259E+00
2.445895651E+01  2.985851526E+00
2.447831435E+01  1.437137604E+00
2.449767219E+01  -1.141581416E+00
2.451703003E+01  -2.422186852E+00
2.453638788E+01  -4.959675074E-01
2.455574572E+01  -3.806941211E-01
2.457510356E+01  -2.398504317E-01
2.459446140E+01  -4.690532088E-01
2.461381924E+01  7.199698091E-01
2.463317708E+01  -4.241083190E-02
2.465253492E+01  8.837599754E-01
2.467189276E+01  1.719072819E+00
2.469125060E+01  1.585560083E+00
2.471060845E+01  -2.118050158E-01
2.472996629E+01  -1.463667274E+00
2.474932413E+01  -1.047496200E+00
2.476868197E+01  1.767974854E+00
2.478803981E+01  4.164061546E+00
2.480739765E+01  4.719396591E+00
2.482675549E+01  4.800315380E+00
2.484611333E+01  4.064519405E+00
2.486547117E+01  1.677385926E+00
2.488482901E+01  -1.479531884E+00
2.490418686E+01  -5.028419495E-01
2.492354470E+01  1.404269695E+00
2.494290254E+01  1.740388513E+00
2.496226038E+01  8.130486012E-01
2.498161822E+01  1.919151306E+00
2.500097606E+01  5.012133121E-01
2.502033390E+01  7.132825255E-01
2.503969174E+01  1.270544410E+00
2.505904958E+01  4.367531776E+00
2.507840743E+01  4.675923347E+00
2.509776527E+01  3.586727619E+00
2.511712311E+01  1.578929543E+00
2.513648095E+01  -3.637661040E-01
2.515583879E+01  -6.430767179E-01
2.517519663E+01  1.239496350E+00
2.519455447E+01  3.941939354E+00
2.521391231E+01  2.245098352E+00
2.523327015E+01  9.569693208E-01
2.525262800E+01  2.563326836E+00
2.527198584E+01  4.949151516E+00
2.529134368E+01  4.224308491E+00
2.531070152E+01  2.484524488E+00
2.533005936E+01  4.063824177E+00
2.534941720E+01  3.620214701E+00
2.536877504E+01  2.318299055E+00
2.538813288E+01  6.490905881E-01
2.540749072E+01  2.131425142E+00
2.542684856E+01  3.975039721E+00
2.544620641E+01  6.072998524E+00
2.546556425E+01  8.038797379E+00
2.548492209E+01  9.464660645E+00
2.550427993E+01  9.922754288E+00
2.552363777E+01  1.049961090E+01
2.554299561E+01  9.387429237E+00
2.556235345E+01  7.472698212E+00
2.558171129E+01  4.462414742E+00
2.560106913E+01  3.169725895E+00
2.562042698E+01  1.153576493E+00
2.563978482E+01  -1.894572854E+00
2.565914266E+01  -2.952014685E+00
2.567850050E+01  -8.112784624E-01
2.569785834E+01  2.193552256E+00
2.571721618E+01  2.795972347E+00
2.573657402E+01  3.905456543E+00
2.575593186E+01  7.820353031E+00
2.577528970E+01  1.161875534E+01
2.579464755E+01  1.405743122E+01
2.581400539E+01  1.291826725E+01
2.583336323E+01  1.346261120E+01
2.585272107E+01  1.446546555E+01
2.587207891E+01  1.647354126E+01
2.589143675E+01  1.773886299E+01
2.591079459E+01  1.524196339E+01
2.593015243E+01  1.635375977E+01
2.594951027E+01  1.813804245E+01
2.596886811E+01  2.187981033E+01
2.598822596E+01  2.471221542E+01
2.600758380E+01  2.713660431E+01
2.602694164E+01  2.770170784E+01
2.604629948E+01  2.959423065E+01
2.606565732E+01  3.200750351E+01
2.608501516E+01  3.824061584E+01
2.610437300E+01  3.938614655E+01
2.612373084E+01  4.192149734E+01
2.614308868E+01  4.282459259E+01
2.616244653E+01  5.195964813E+01
2.618180437E+01  5.940015411E+01
2.620116221E+01  6.244181442E+01
2.622052005E+01  6.113331985E+01
2.623987789E+01  5.953829956E+01
2.625923573E+01  5.947554398E+01
2.627859357E+01  6.023289871E+01
2.629795141E+01  5.888802719E+01
2.631730925E+01  5.595711899E+01
2.633666710E+01  5.198323441E+01
2.635602494E+01  4.363568878E+01
2.637538278E+01  3.492316437E+01
2.639474062E+01  3.102477455E+01
2.641409846E+01  3.317626190E+01
2.643345630E+01  3.519711685E+01
2.645281414E+01  3.515559769E+01
2.647217198E+01  3.326300049E+01
2.649152982E+01  3.295203781E+01
2.651088766E+01  3.053843689E+01
2.653024551E+01  3.218212128E+01
2.654960335E+01  3.309569168E+01
2.656896119E+01  3.513475800E+01
2.658831903E+01  3.386140442E+01
2.660767687E+01  3.624559402E+01
2.662703471E+01  4.204578781E+01
2.664639255E+01  4.456967163E+01
2.666575039E+01  4.489851761E+01
2.668510823E+01  4.466257858E+01
2.670446608E+01  4.861602020E+01
2.672382392E+01  5.372604752E+01
2.674318176E+01  5.554935455E+01
2.676253960E+01  5.748530197E+01
2.678189744E+01  5.458793259E+01
2.680125528E+01  5.568633652E+01
2.682061312E+01  5.547056961E+01
2.683997096E+01  6.149365234E+01
2.685932880E+01  6.545570374E+01
2.687868665E+01  6.808973694E+01
2.689804449E+01  7.409376526E+01
2.691740233E+01  8.314252472E+01
2.693676017E+01  8.809137726E+01
2.695611801E+01  8.540328217E+01
2.697547585E+01  8.411073303E+01
2.699483369E+01  8.502574158E+01
2.701419153E+01  9.066146851E+01
2.703354937E+01  9.389603424E+01
2.705290721E+01  9.937004852E+01
2.707226506E+01  1.029311295E+02
2.709162290E+01  1.039948044E+02
2.711098074E+01  1.039417267E+02
2.713033858E+01  1.035900879E+02
2.714969642E+01  1.046831665E+02
2.716905426E+01  1.081347351E+02
2.718841210E+01  1.090048523E+02
2.720776994E+01  1.053517227E+02
2.722712778E+01  1.056230164E+02
2.724648563E+01  1.079412842E+02
2.726584347E+01  1.104706802E+02
2.728520131E+01  1.082714233E+02
2.730455915E+01  1.079096832E+02
2.732391699E+01  1.058296356E+02
2.734327483E+01  1.056022339E+02
2.736263267E+01  1.046490860E+02
2.738199051E+01  1.057512360E+02
2.740134835E+01  1.068677521E+02
2.742070620E+01  1.082326355E+02
2.744006404E+01  1.063516541E+02
2.745942188E+01  1.024258881E+02
2.747877972E+01  1.032418671E+02
2.749813756E+01  1.082684708E+02
2.751749540E+01  1.160707474E+02
2.753685324E+01  1.214622116E+02
2.755621108E+01  1.318124847E+02
2.757556892E+01  1.473314209E+02
2.759492676E+01  1.743796692E+02
2.761428461E+01  1.941358948E+02
2.763364245E+01  1.991196594E+02
2.765300029E+01  1.611739349E+02
2.767235813E+01  9.964739227E+01
2.769171597E+01  7.315490723E+01
2.771107381E+01  9.558147430E+01
2.773043165E+01  1.340682831E+02
2.774978949E+01  1.790644836E+02
2.776914733E+01  2.053364716E+02
2.778850518E+01  2.368975525E+02
2.780786302E+01  2.856547546E+02
2.782722086E+01  3.206694641E+02
2.784657870E+01  3.054927979E+02
2.786593654E+01  2.995978394E+02
2.788529438E+01  2.844796753E+02
2.790465222E+01  2.696267090E+02
2.792401006E+01  2.409812775E+02
2.794336790E+01  2.021128235E+02
2.796272575E+01  1.457740784E+02
2.798208359E+01  1.150839996E+02
2.800144143E+01  8.822980499E+01
2.802079927E+01  5.998404312E+01
2.804015711E+01  4.013581848E+01
2.805951495E+01  2.534062958E+01
2.807887279E+01  2.254199028E+00
2.809823063E+01  3.926198578E+01
2.811758847E+01  9.002460480E+01
2.813694631E+01  8.845244598E+01
2.815630416E+01  7.053795624E+01
2.817566200E+01  5.994743347E+01
2.819501984E+01  5.218143845E+01
2.821437768E+01  5.061356354E+01
2.823373552E+01  5.541231537E+01
2.825309336E+01  5.725666046E+01
2.827245120E+01  5.093144989E+01
2.829180904E+01  4.634934998E+01
2.831116688E+01  4.760450745E+01
2.833052473E+01  4.658555603E+01
2.834988257E+01  4.699654007E+01
2.836924041E+01  4.539788437E+01
2.838859825E+01  4.567020798E+01
2.840795609E+01  4.084703064E+01
2.842731393E+01  3.659493637E+01
2.844667177E+01  3.449185181E+01
2.846602961E+01  3.283876419E+01
2.848538745E+01  3.117701530E+01
2.850474530E+01  3.241937637E+01
2.852410314E+01  3.716618729E+01
2.854346098E+01  4.034083939E+01
2.856281882E+01  4.116024399E+01
2.858217666E+01  3.764291000E+01
2.860153450E+01  3.678987122E+01
2.862089234E+01  3.906178665E+01
2.864025018E+01  4.316466141E+01
2.865960802E+01  4.607088852E+01
2.867896587E+01  4.747101974E+01
2.869832371E+01  4.702630615E+01
2.871768155E+01  4.492152405E+01
2.873703939E+01  4.559703827E+01
2.875639723E+01  4.421497345E+01
2.877575507E+01  4.743204117E+01
2.879511291E+01  5.198997879E+01
2.881447075E+01  4.996393967E+01
2.883382859E+01  4.556846619E+01
2.885318643E+01  4.571495056E+01
2.887254428E+01  5.536320877E+01
2.889190212E+01  5.667504883E+01
2.891125996E+01  5.484894943E+01
2.893061780E+01  5.642491913E+01
2.894997564E+01  6.159687805E+01
2.896933348E+01  6.786751556E+01
2.898869132E+01  7.369799805E+01
2.900804916E+01  8.272060394E+01
2.902740700E+01  8.807511902E+01
2.904676485E+01  1.085091248E+02
2.906612269E+01  1.325458984E+02
2.908548053E+01  1.487897339E+02
2.910483837E+01  1.691348877E+02
2.912419621E+01  1.923195038E+02
2.914355405E+01  2.111610413E+02
2.916291189E+01  2.146630249E+02
2.918226973E+01  2.008158722E+02
2.920162757E+01  1.737102509E+02
2.922098542E+01  1.486843414E+02
2.924034326E+01  1.307911377E+02
2.925970110E+01  1.040082245E+02
2.927905894E+01  7.605780792E+01
2.929841678E+01  6.607324219E+01
2.931777462E+01  5.981338882E+01
2.933713246E+01  4.852386475E+01
2.935649030E+01  3.680715179E+01
2.937584814E+01  2.484579659E+01
2.939520598E+01  1.839823723E+01
2.941456383E+01  1.790165710E+01
2.943392167E+01  1.397883701E+01
2.945327951E+01  1.009328556E+01
2.947263735E+01  9.630066872E+00
2.949199519E+01  1.936179519E+00
2.951135303E+01  -1.837073803E+00
2.953071087E+01  2.842406988E+00
2.955006871E+01  2.239532709E+00
2.956942655E+01  -4.910792112E-01
2.958878440E+01  -4.513775110E-01
2.960814224E+01  2.318986177E+00
2.962750008E+01  2.577370644E+00
2.964685792E+01  -3.449802160E+00
2.966621576E+01  -3.699641228E+00
2.968557360E+01  4.281230867E-01
2.970493144E+01  3.717193365E+00
2.972428928E+01  -1.432636857E+00
