-0.0014612271	119521
1.8482959	40195
3.6962798	21935
5.5454116	19002
7.3942313	18653
9.2412786	18567
11.089474	18501
12.935897	18384
14.783467	18291
16.630726	18289
18.476212	18273
20.321388	18263
22.167711	18278
24.012264	18237
25.857964	18244
27.701895	18255
29.546972	18221
31.39028	18240
33.233276	18238
35.075962	18231
36.919796	18227
38.76186	18225
40.603615	18243
42.445053	18247
44.287643	18228
46.128464	18247
47.968979	18242
49.809177	18222
51.649071	18212
53.488651	18236
55.327923	18218
57.166885	18207
59.005539	18220
60.843876	18240
62.681908	18215
64.51963	18236
66.357048	18212
68.194145	18212
70.029495	18227
71.865974	18216
73.702156	18237
75.538017	18220
77.373573	18198
79.207375	18204
81.042313	18219
82.876945	18217
84.709816	18220
86.543831	18226
88.376083	18216
90.20948	18223
92.042572	18219
93.873901	18225
95.706375	18228
97.537094	18202
99.368942	18229
101.19904	18226
103.02884	18238
104.85977	18224
106.68895	18221
108.51927	18240
110.34782	18212
112.17609	18206
114.00404	18223
115.83312	18224
117.66046	18237
119.48748	18251
121.31421	18231
123.14063	18255
124.96818	18244
126.79398	18263
128.61946	18251
130.44466	18225
132.26955	18251
134.09412	18223
135.91838	18242
137.74236	18252
139.56601	18241
141.38936	18248
143.21097	18235
145.03371	18230
146.85614	18265
148.67827	18233
150.50011	18243
152.32161	18258
154.14139	18261
155.9623	18242
157.7829	18245
159.60176	18229
161.42175	18271
163.24144	18246
165.05939	18272
166.87846	18240
168.6958	18258
170.51427	18228
172.33099	18244
174.14885	18264
175.96498	18263
177.78223	18242
179.59773	18245
181.41295	18286
183.22929	18248
185.04388	18247
186.85818	18250
188.67361	18238
190.4873	18227
192.30069	18241
194.11377	18240
195.92799	18233
197.74046	18239
199.55263	18233
201.36452	18233
203.17607	18241
204.98734	18243
206.79831	18242
208.60896	18253
210.41931	18241
212.22939	18245
214.03912	18232
215.84857	18240
217.65773	18232
219.46658	18234
221.27512	18251
223.08194	18273
224.88986	18250
226.69751	18237
228.50485	18224
230.31044	18254
232.11719	18250
233.92363	18230
235.72832	18250
237.53415	18249
239.33969	18232
241.14348	18226
242.94841	18258
244.75159	18285
246.55592	18267
248.35854	18267
250.16225	18254
251.96425	18266
253.76736	18248
255.56876	18262
257.36984	18247
259.17206	18249
260.97256	18235
262.77277	18246
264.57266	18221
266.37369	18263
268.17297	18256
269.97198	18264
271.77066	18243
273.56906	18227
275.36716	18248
277.16495	18245
278.96246	18234
280.76108	18250
282.55798	18253
284.35315	18253
286.14948	18233
287.94547	18236
289.74118	18251
291.53659	18252
293.3317	18233
295.1265	18251
296.92099	18218
298.71381	18239
300.50772	18263
302.30133	18247
304.09467	18240
305.88626	18250
307.67899	18224
309.47141	18241
311.26212	18255
313.05392	18253
314.84406	18247
316.63528	18237
318.4248	18250
320.21545	18247
322.00436	18249
323.7944	18237
325.58276	18234
327.37079	18239
329.15994	18245
330.94739	18233
332.73453	18223
334.52277	18233
336.30936	18241
338.09558	18250
339.88156	18231
341.66721	18239
343.45401	18244
345.23907	18244
347.02386	18260
348.80832	18211
350.5925	18227
352.3764	18221
354.15997	18235
355.9433	18254
357.72629	18246
359.509	18227
361.29138	18238
363.07352	18256
364.85391	18220
366.63544	18230
368.41669	18241
370.1976	18231
371.97824	18255
373.75717	18229
375.53723	18240
377.31699	18241
379.09503	18251
380.87421	18236
382.65167	18256
384.43027	18235
386.20853	18240
387.98514	18258
389.76282	18251
391.53879	18247
393.31451	18247
395.09131	18245
396.86646	18238
398.64267	18236
400.41718	18279
402.19144	18230
403.96677	18260
405.74042	18228
407.51379	18252
409.28683	18235
411.05963	18243
412.8335	18249
414.60565	18234
416.37756	18229
418.14917	18260
419.92047	18224
421.6915	18227
423.46219	18250
425.2326	18221
427.00278	18242
428.77261	18252
430.54218	18257
432.31143	18246
434.07898	18242
435.84766	18258
437.61606	18241
439.38416	18254
441.15198	18276
442.91806	18272
444.68527	18237
446.45218	18259
448.21747	18277
449.9838	18271
451.74985	18276
453.51422	18285
455.27969	18271
457.04346	18252
458.80838	18257
460.57156	18267
462.33447	18263
464.09848	18254
465.86084	18247
467.62427	18267
469.38599	18262
471.14749	18266
472.91003	18282
474.67093	18289
476.43149	18281
478.19183	18272
479.95184	18280
481.71295	18285
483.47235	18275
485.23154	18285
486.99039	18299
488.74893	18275
490.5072	18258
492.26523	18279
494.02292	18275
495.7803	18262
497.53741	18270
499.29428	18251
501.04941	18231
502.80566	18246
504.56161	18252
506.31732	18245
508.07272	18249
509.82642	18224
511.58121	18258
513.33575	18233
515.08862	18232
516.84253	18229
518.59619	18257
520.34821	18236
522.10126	18229
523.85272	18235
525.60522	18248
527.35602	18246
529.10797	18244
530.85822	18237
532.60815	18235
534.35925	18259
536.10864	18220
537.85779	18242
539.60797	18233
541.35651	18265
543.10474	18253
544.85272	18264
546.60181	18231
548.34918	18211
550.09631	18238
551.84308	18241
553.5896	18245
555.33588	18239
557.08185	18247
558.82751	18226
560.57294	18225
562.31799	18269
564.06281	18242
565.80737	18232
567.55157	18230
569.29419	18259
571.0379	18252
572.78125	18247
574.52435	18265
576.26581	18259
578.0083	18265
579.75055	18253
581.49115	18259
583.23285	18250
584.97424	18247
586.71399	18261
588.45477	18260
590.19397	18248
591.9342	18253
593.67279	18239
595.41248	18257
597.15051	18268
598.88824	18252
600.62708	18282
602.36426	18266
604.10114	18249
605.83911	18246
607.57544	18252
609.31146	18254
611.04724	18265
612.78271	18266
614.51929	18259
616.25421	18269
617.98883	18275
619.72314	18259
621.45721	18273
623.19098	18291
624.92444	18283
626.65765	18285
628.39056	18280
630.12323	18283
631.85419	18313
633.5863	18287
635.31805	18294
637.04962	18305
638.78082	18298
640.51038	18305
642.24109	18320
643.97144	18308
645.7002	18328
647.42999	18323
649.15955	18332
650.88739	18341
652.61639	18319
654.34369	18350
656.07214	18327
657.79889	18306
659.52673	18321
661.25293	18339
662.97882	18334
664.70587	18318
666.43121	18313
668.15625	18321
669.88245	18295
671.60693	18295
673.33112	18290
675.05511	18314
676.77875	18314
678.50214	18302
680.22662	18303
681.94946	18327
683.67206	18310
685.39429	18317
687.11627	18286
688.83801	18302
690.55945	18317
692.28058	18292
694.00006	18312
695.72064	18317
697.44098	18296
699.16101	18311
700.88074	18278
702.59888	18295
704.31805	18296
706.03699	18286
707.75562	18297
709.47266	18296
711.19067	18291
712.9071	18283
714.62463	18277
716.34052	18294
718.0575	18282
719.77283	18299
721.48926	18264
723.20398	18256
724.9198	18271
726.63403	18293
728.34796	18277
730.06299	18293
731.77637	18293
733.4895	18267
735.20227	18258
736.91614	18283
738.62842	18291
740.34045	18288
742.05219	18278
743.76361	18280
745.47473	18283
747.18561	18283
748.89624	18253
750.60657	18275
752.31659	18286
754.02631	18295
755.73584	18296
757.44507	18283
759.15399	18288
760.86267	18278
762.5697	18248
764.27777	18258
765.98566	18266
767.69183	18268
769.39917	18270
771.10614	18263
772.81152	18280
774.51794	18275
776.22418	18275
777.92865	18273
779.63434	18275
781.33832	18270
783.0434	18272
784.74683	18261
786.45001	18264
788.15424	18262
789.85687	18283
791.5592	18259
793.26263	18271
794.96442	18243
796.66595	18250
798.36719	18262
800.06818	18266
801.77026	18246
803.4707	18266
805.17078	18285
806.87067	18284
808.57031	18258
810.26959	18265
811.96863	18247
813.66742	18261
815.36597	18284
817.06415	18280
818.76074	18260
820.45844	18272
822.15582	18246
823.85297	18266
825.54987	18279
827.24506	18294
828.94141	18287
830.63745	18266
832.33185	18281
834.02734	18284
835.72125	18282
837.41614	18265
839.11084	18276
840.80389	18264
842.49799	18263
844.19055	18268
845.88275	18304
847.57605	18260
849.26776	18248
850.95917	18260
852.65167	18265
854.34259	18255
856.03314	18254
857.72351	18249
859.41492	18257
861.10468	18286
862.79419	18246
864.4834	18275
866.17242	18276
867.86115	18271
869.5495	18283
871.23767	18264
872.92554	18266
874.61316	18262
876.30054	18280
877.98761	18268
879.67444	18280
881.35956	18247
883.04584	18264
884.73181	18250
886.41754	18273
888.10168	18271
889.7868	18262
891.47174	18277
893.15503	18268
894.83942	18270
896.52216	18297
898.20599	18257
899.88818	18248
901.57147	18279
903.25317	18271
904.93591	18259
906.61707	18270
908.29791	18277
909.97986	18279
911.66016	18269
913.34027	18276
915.0213	18247
916.70087	18264
918.38013	18279
920.05908	18261
921.73779	18253
923.41626	18289
925.09442	18262
926.77234	18266
928.44995	18281
930.12732	18262
931.80444	18272
933.48126	18255
935.15778	18262
936.83411	18253
938.51013	18296
940.18591	18267
941.86005	18255
943.53528	18282
945.21021	18274
946.88495	18274
948.55798	18272
950.23212	18261
951.90466	18267
953.57825	18276
955.25165	18271
956.9234	18274
958.59619	18260
960.2674	18259
961.93829	18271
963.61035	18285
965.28076	18287
966.95227	18281
968.62207	18276
970.29175	18275
971.96106	18265
973.63141	18277
975.30029	18277
976.96881	18272
978.63715	18287
980.30511	18258
981.97284	18247
983.64032	18266
985.3075	18292
986.97449	18267
988.64117	18285
990.30756	18296
991.97375	18281
993.63959	18290
995.30518	18291
996.97058	18256
998.63428	18265
1000.2992	18273
1001.9637	18275
1003.6279	18294
1005.2907	18289
1006.9544	18283
1008.6179	18275
1010.2798	18281
1011.9427	18272
1013.6041	18289
1015.2666	18266
1016.9274	18283
1018.5893	18278
1020.2496	18295
1021.9097	18281
1023.5708	18278
1025.2303	18298
1026.8895	18304
1028.5498	18287
1030.2086	18275
1031.8671	18278
1033.5253	18278
1035.1832	18294
1036.8409	18287
1038.4996	18286
1040.1567	18286
1041.8137	18296
1043.4702	18293
1045.1266	18297
1046.7814	18300
1048.4373	18284
1050.0928	18288
1051.748	18302
1053.4031	18322
1055.0579	18287
1056.7111	18296
1058.3654	18293
1060.0193	18305
1061.6731	18292
1063.3252	18300
1064.9784	18312
1066.63	18318
1068.2827	18332
1069.9337	18301
1071.5859	18322
1073.2365	18321
1074.8881	18313
1076.5381	18303
1078.1892	18316
1079.8387	18328
1081.4879	18293
1083.137	18319
1084.7871	18319
1086.4355	18325
1088.0837	18345
1089.7317	18364
1091.3793	18318
1093.0269	18350
1094.6753	18321
1096.3221	18338
1097.9688	18323
1099.6151	18332
1101.2612	18335
1102.9059	18322
1104.5515	18348
1106.1968	18345
1107.8419	18327
1109.4867	18324
1111.1312	18331
1112.7742	18362
1114.4183	18321
1116.0621	18342
1117.7042	18326
1119.3475	18360
1120.9905	18354
1122.632	18360
1124.2744	18336
1125.9153	18366
1127.5573	18348
1129.1976	18343
1130.8378	18340
1132.479	18352
1134.1185	18353
1135.7593	18361
1137.3983	18383
1139.0371	18360
1140.6757	18366
1142.314	18374
1143.9535	18377
1145.5912	18395
1147.2288	18383
1148.8661	18397
1150.5031	18357
1152.1398	18400
1153.7762	18374
1155.4125	18386
1157.0485	18400
1158.6842	18397
1160.3197	18399
1161.9536	18397
1163.5885	18401
1165.2233	18409
1166.8577	18407
1168.4918	18427
1170.1245	18427
1171.7581	18416
1173.3903	18428
1175.0233	18401
1176.6564	18419
1178.2876	18430
1179.92	18413
1181.5508	18423
1183.1827	18418
1184.813	18438
1186.443	18434
1188.0741	18465
1189.7036	18426
1191.3329	18427
1192.9633	18432
1194.5919	18441
1196.2205	18433
1197.8486	18449
1199.4767	18447
1201.1044	18457
1202.7318	18492
1204.3591	18425
1205.9861	18467
1207.6128	18493
1209.2393	18473
1210.8654	18471
1212.4913	18465
1214.1171	18497
1215.7424	18480
1217.3677	18517
1218.9913	18501
1220.616	18512
1222.2404	18485
1223.8645	18525
1225.4871	18525
1227.1107	18524
1228.7328	18566
1230.356	18505
1231.9775	18505
1233.6001	18547
1235.2212	18553
1236.8433	18544
1238.4639	18550
1240.0854	18548
1241.7054	18577
1243.3252	18587
1244.946	18575
1246.5654	18586
1248.1844	18567
1249.8032	18607
1251.4218	18594
1253.0399	18632
1254.658	18624
1256.277	18655
1257.8945	18626
1259.5118	18643
1261.1288	18636
1262.7443	18635
1264.3607	18649
1265.9769	18662
1267.5929	18688
1269.2087	18733
1270.8242	18731
1272.4381	18707
1274.053	18736
1275.6677	18770
1277.281	18743
1278.8951	18773
1280.5092	18746
1282.1215	18787
1283.735	18805
1285.3469	18794
1286.9598	18805
1288.5713	18856
1290.1836	18870
1291.7946	18920
1293.4053	18900
1295.017	18953
1296.6271	19001
1298.2369	19043
1299.8466	19099
1301.4561	19149
1303.0664	19162
1304.6753	19251
1306.2839	19346
1307.8923	19391
1309.5004	19462
1311.1083	19559
1312.7159	19754
1314.3234	19852
1315.9304	20073
1317.5372	20235
1319.1427	20513
1320.749	20816
1322.3551	21238
1323.9609	21910
1325.5653	23352
1327.1707	27500
1328.7758	39026
1330.3794	51737
1331.984	55135
1333.5884	54500
1335.1912	54162
1336.795	54787
1338.3973	56706
1340.0007	59613
1341.6025	63851
1343.2041	69577
1344.8068	76888
1346.4078	87773
1348.0087	103301
1349.6093	125086
1351.2108	159997
1352.8109	216854
1354.4108	305324
1356.0104	415504
1357.6096	473079
1359.2087	285233
1360.8075	108983
1362.4061	53583
1364.0045	37337
1365.6025	30789
1367.2004	27139
1368.798	24853
1370.3953	23459
1371.9911	22522
1373.5879	21902
1375.1846	21441
1376.7809	21074
1378.3757	20737
1379.9716	20470
1381.5671	20302
1383.1613	20130
1384.7563	19996
1386.3499	19914
1387.9445	19824
1389.5376	19746
1391.1317	19703
1392.7242	19629
1394.3167	19628
1395.91	19558
1397.5018	19492
1399.0934	19505
1400.6847	19483
1402.2771	19418
1403.8679	19408
1405.4586	19368
1407.0488	19359
1408.639	19327
1410.2289	19322
1411.8185	19297
1413.408	19306
1414.9969	19254
1416.5859	19238
1418.1744	19264
1419.7629	19281
1421.3497	19240
1422.9376	19235
1424.5253	19224
1426.1127	19227
1427.6985	19187
1429.2854	19203
1430.8721	19136
1432.4573	19178
1434.0433	19163
1435.6279	19167
1437.2136	19149
1438.7977	19139
1440.3831	19131
1441.9667	19115
1443.55	19145
1445.1345	19091
1446.7174	19131
1448.3	19073
1449.8839	19094
1451.4659	19058
1453.0479	19094
1454.6296	19066
1456.2111	19073
1457.7924	19047
1459.3733	19041
1460.954	19050
1462.5344	19055
1464.1146	19025
1465.6947	19006
1467.2744	19035
1468.8539	19014
1470.4331	18999
1472.0109	18966
1473.5897	18979
1475.1681	19029
1476.7465	18982
1478.3232	18968
1479.901	18965
1481.4773	18944
1483.0546	18964
1484.6302	18991
1486.2072	18937
1487.7825	18927
1489.3588	18914
1490.9336	18934
1492.5094	18945
1494.0837	18951
1495.6578	18951
1497.2317	18952
1498.8065	18895
1500.3799	18913
1501.953	18922
1503.5259	18905
1505.0985	18917
1506.6708	18916
1508.2429	18927
1509.8149	18933
1511.3865	18924
1512.9579	18955
1514.5292	18908
1516.1001	18883
1517.6707	18905
1519.2412	18897
1520.8101	18915
1522.38	18886
1523.9497	18895
1525.5181	18893
1527.0872	18911
1528.6561	18928
1530.2238	18894
1531.7922	18887
1533.3593	18899
1534.9271	18906
1536.4938	18893
1538.0613	18911
1539.6273	18927
1541.1931	18907
1542.76	18918
1544.3252	18895
1545.8903	18905
1547.4551	18958
1549.0209	18931
1550.5853	18925
1552.1494	18901
1553.7133	18935
1555.2769	18931
1556.8403	18914
1558.4034	18954
1559.9664	18914
1561.5291	18926
1563.0914	18930
1564.6537	18942
1566.2144	18954
1567.776	18948
1569.3375	18970
1570.8987	18994
1572.4584	18969
1574.0193	18966
1575.5797	18987
1577.1387	18987
1578.6987	19008
1580.2572	18992
1581.8168	18986
1583.3748	18985
1584.934	19017
1586.4915	18989
1588.0488	19030
1589.6072	19042
1591.1639	19046
1592.7206	19035
1594.277	19014
1595.8345	19045
1597.3904	19067
1598.946	19081
1600.5013	19052
1602.0565	19097
1603.6115	19097
1605.1661	19123
1606.7207	19084
1608.2749	19153
1609.8289	19151
1611.3826	19169
1612.9348	19159
1614.4883	19151
1616.0413	19184
1617.594	19226
1619.1454	19206
1620.6976	19220
1622.2498	19204
1623.8003	19228
1625.3519	19239
1626.9021	19223
1628.4532	19241
1630.0028	19245
1631.5535	19258
1633.1027	19262
1634.6516	19283
1636.2015	19266
1637.75	19265
1639.2982	19257
1640.8462	19240
1642.3951	19257
1643.9427	19257
1645.49	19210
1647.037	19255
1648.5839	19208
1650.1304	19213
1651.6768	19224
1653.2229	19223
1654.7687	19158
1656.3143	19192
1657.8597	19135
1659.4037	19141
1660.9485	19103
1662.4933	19118
1664.0377	19095
1665.5807	19069
1667.1246	19095
1668.6683	19036
1670.2106	19013
1671.7539	19011
1673.2957	18953
1674.8385	18952
1676.3798	18948
1677.9221	18945
1679.4629	18900
1681.0034	18904
1682.545	18856
1684.0852	18866
1685.6251	18833
1687.1648	18818
1688.7056	18778
1690.2448	18776
1691.7837	18771
1693.3224	18758
1694.8608	18747
1696.399	18723
1697.9371	18707
1699.475	18739
1701.0126	18705
1702.5498	18697
1704.0857	18684
1705.6224	18660
1707.1591	18656
1708.6956	18648
1710.2305	18636
1711.7664	18632
1713.3021	18601
1714.8363	18608
1716.3715	18581
1717.9052	18601
1719.4399	18590
1720.9733	18576
1722.5076	18601
1724.0403	18571
