-0.0014612271	212939
1.8482959	62829
3.6962798	26426
5.5454116	19806
7.3942313	19142
9.2412786	18926
11.089474	18794
12.935897	18552
14.783467	18412
16.630726	18395
18.476212	18334
20.321388	18343
22.167711	18334
24.012264	18262
25.857964	18260
27.701895	18264
29.546972	18233
31.39028	18262
33.233276	18237
35.075962	18256
36.919796	18231
38.76186	18224
40.603615	18232
42.445053	18218
44.287643	18258
46.128464	18222
47.968979	18214
49.809177	18210
51.649071	18212
53.488651	18220
55.327923	18235
57.166885	18239
59.005539	18222
60.843876	18219
62.681908	18220
64.51963	18228
66.357048	18209
68.194145	18213
70.029495	18214
71.865974	18211
73.702156	18215
75.538017	18210
77.373573	18183
79.207375	18230
81.042313	18211
82.876945	18191
84.709816	18199
86.543831	18197
88.376083	18179
90.20948	18227
92.042572	18208
93.873901	18188
95.706375	18205
97.537094	18204
99.368942	18223
101.19904	18205
103.02884	18231
104.85977	18222
106.68895	18199
108.51927	18199
110.34782	18196
112.17609	18202
114.00404	18221
115.83312	18218
117.66046	18195
119.48748	18191
121.31421	18214
123.14063	18206
124.96818	18192
126.79398	18238
128.61946	18209
130.44466	18216
132.26955	18218
134.09412	18221
135.91838	18222
137.74236	18213
139.56601	18186
141.38936	18200
143.21097	18216
145.03371	18233
146.85614	18216
148.67827	18202
150.50011	18213
152.32161	18207
154.14139	18232
155.9623	18222
157.7829	18216
159.60176	18244
161.42175	18210
163.24144	18201
165.05939	18214
166.87846	18206
168.6958	18199
170.51427	18173
172.33099	18190
174.14885	18197
175.96498	18198
177.78223	18215
179.59773	18199
181.41295	18196
183.22929	18199
185.04388	18199
186.85818	18221
188.67361	18198
190.4873	18188
192.30069	18201
194.11377	18212
195.92799	18227
197.74046	18212
199.55263	18218
201.36452	18205
203.17607	18202
204.98734	18203
206.79831	18204
208.60896	18211
210.41931	18202
212.22939	18206
214.03912	18211
215.84857	18198
217.65773	18188
219.46658	18192
221.27512	18193
223.08194	18207
224.88986	18188
226.69751	18181
228.50485	18197
230.31044	18230
232.11719	18217
233.92363	18208
235.72832	18197
237.53415	18210
239.33969	18190
241.14348	18225
242.94841	18201
244.75159	18198
246.55592	18192
248.35854	18235
250.16225	18197
251.96425	18187
253.76736	18202
255.56876	18184
257.36984	18206
259.17206	18216
260.97256	18235
262.77277	18210
264.57266	18202
266.37369	18212
268.17297	18222
269.97198	18213
271.77066	18215
273.56906	18202
275.36716	18195
277.16495	18216
278.96246	18217
280.76108	18240
282.55798	18194
284.35315	18204
286.14948	18178
287.94547	18188
289.74118	18208
291.53659	18190
293.3317	18216
295.1265	18186
296.92099	18202
298.71381	18194
300.50772	18206
302.30133	18195
304.09467	18208
305.88626	18234
307.67899	18200
309.47141	18210
311.26212	18197
313.05392	18181
314.84406	18201
316.63528	18201
318.4248	18171
320.21545	18190
322.00436	18207
323.7944	18194
325.58276	18224
327.37079	18198
329.15994	18264
330.94739	18211
332.73453	18211
334.52277	18184
336.30936	18262
338.09558	18207
339.88156	18194
341.66721	18199
343.45401	18204
345.23907	18199
347.02386	18190
348.80832	18176
350.5925	18195
352.3764	18179
354.15997	18186
355.9433	18212
357.72629	18202
359.509	18187
361.29138	18200
363.07352	18194
364.85391	18216
366.63544	18233
368.41669	18187
370.1976	18200
371.97824	18181
373.75717	18210
375.53723	18208
377.31699	18189
379.09503	18199
380.87421	18224
382.65167	18171
384.43027	18196
386.20853	18211
387.98514	18169
389.76282	18220
391.53879	18221
393.31451	18201
395.09131	18208
396.86646	18200
398.64267	18207
400.41718	18187
402.19144	18182
403.96677	18219
405.74042	18204
407.51379	18220
409.28683	18193
411.05963	18199
412.8335	18213
414.60565	18189
416.37756	18193
418.14917	18203
419.92047	18205
421.6915	18217
423.46219	18213
425.2326	18206
427.00278	18206
428.77261	18196
430.54218	18200
432.31143	18207
434.07898	18197
435.84766	18229
437.61606	18209
439.38416	18203
441.15198	18202
442.91806	18226
444.68527	18192
446.45218	18218
448.21747	18219
449.9838	18211
451.74985	18228
453.51422	18214
455.27969	18212
457.04346	18207
458.80838	18221
460.57156	18232
462.33447	18246
464.09848	18220
465.86084	18239
467.62427	18237
469.38599	18207
471.14749	18235
472.91003	18206
474.67093	18236
476.43149	18219
478.19183	18223
479.95184	18225
481.71295	18197
483.47235	18201
485.23154	18213
486.99039	18194
488.74893	18194
490.5072	18197
492.26523	18212
494.02292	18184
495.7803	18203
497.53741	18200
499.29428	18181
501.04941	18177
502.80566	18175
504.56161	18190
506.31732	18173
508.07272	18197
509.82642	18197
511.58121	18177
513.33575	18193
515.08862	18184
516.84253	18190
518.59619	18195
520.34821	18203
522.10126	18201
523.85272	18184
525.60522	18207
527.35602	18210
529.10797	18195
530.85822	18223
532.60815	18194
534.35925	18190
536.10864	18206
537.85779	18204
539.60797	18185
541.35651	18204
543.10474	18185
544.85272	18214
546.60181	18192
548.34918	18212
550.09631	18199
551.84308	18213
553.5896	18198
555.33588	18194
557.08185	18182
558.82751	18194
560.57294	18185
562.31799	18198
564.06281	18216
565.80737	18189
567.55157	18200
569.29419	18181
571.0379	18209
572.78125	18191
574.52435	18211
576.26581	18205
578.0083	18212
579.75055	18197
581.49115	18198
583.23285	18186
584.97424	18196
586.71399	18205
588.45477	18202
590.19397	18211
591.9342	18190
593.67279	18196
595.41248	18180
597.15051	18205
598.88824	18206
600.62708	18234
602.36426	18214
604.10114	18220
605.83911	18212
607.57544	18207
609.31146	18237
611.04724	18230
612.78271	18212
614.51929	18226
616.25421	18233
617.98883	18239
619.72314	18232
621.45721	18212
623.19098	18241
624.92444	18277
626.65765	18263
628.39056	18256
630.12323	18231
631.85419	18249
633.5863	18245
635.31805	18266
637.04962	18278
638.78082	18274
640.51038	18267
642.24109	18242
643.97144	18270
645.7002	18229
647.42999	18266
649.15955	18233
650.88739	18227
652.61639	18261
654.34369	18255
656.07214	18282
657.79889	18257
659.52673	18245
661.25293	18232
662.97882	18263
664.70587	18240
666.43121	18257
668.15625	18236
669.88245	18245
671.60693	18245
673.33112	18258
675.05511	18239
676.77875	18262
678.50214	18229
680.22662	18234
681.94946	18242
683.67206	18224
685.39429	18247
687.11627	18221
688.83801	18221
690.55945	18221
692.28058	18231
694.00006	18217
695.72064	18243
697.44098	18235
699.16101	18222
700.88074	18236
702.59888	18226
704.31805	18241
706.03699	18242
707.75562	18241
709.47266	18248
711.19067	18228
712.9071	18245
714.62463	18210
716.34052	18244
718.0575	18236
719.77283	18232
721.48926	18250
723.20398	18220
724.9198	18208
726.63403	18243
728.34796	18227
730.06299	18204
731.77637	18207
733.4895	18240
735.20227	18219
736.91614	18231
738.62842	18227
740.34045	18246
742.05219	18208
743.76361	18248
745.47473	18231
747.18561	18211
748.89624	18236
750.60657	18222
752.31659	18254
754.02631	18266
755.73584	18247
757.44507	18240
759.15399	18234
760.86267	18241
762.5697	18245
764.27777	18232
765.98566	18255
767.69183	18219
769.39917	18239
771.10614	18223
772.81152	18261
774.51794	18240
776.22418	18253
777.92865	18245
779.63434	18221
781.33832	18250
783.0434	18267
784.74683	18238
786.45001	18246
788.15424	18252
789.85687	18233
791.5592	18218
793.26263	18218
794.96442	18217
796.66595	18225
798.36719	18244
800.06818	18188
801.77026	18223
803.4707	18238
805.17078	18255
806.87067	18231
808.57031	18302
810.26959	18234
811.96863	18263
813.66742	18234
815.36597	18239
817.06415	18237
818.76074	18275
820.45844	18226
822.15582	18249
823.85297	18201
825.54987	18259
827.24506	18244
828.94141	18228
830.63745	18267
832.33185	18248
834.02734	18240
835.72125	18238
837.41614	18232
839.11084	18233
840.80389	18221
842.49799	18227
844.19055	18255
845.88275	18264
847.57605	18254
849.26776	18250
850.95917	18221
852.65167	18251
854.34259	18240
856.03314	18241
857.72351	18252
859.41492	18267
861.10468	18248
862.79419	18230
864.4834	18244
866.17242	18235
867.86115	18240
869.5495	18231
871.23767	18254
872.92554	18244
874.61316	18236
876.30054	18247
877.98761	18256
879.67444	18263
881.35956	18236
883.04584	18241
884.73181	18256
886.41754	18229
888.10168	18247
889.7868	18232
891.47174	18272
893.15503	18243
894.83942	18244
896.52216	18240
898.20599	18274
899.88818	18244
901.57147	18253
903.25317	18228
904.93591	18249
906.61707	18238
908.29791	18267
909.97986	18263
911.66016	18223
913.34027	18282
915.0213	18261
916.70087	18257
918.38013	18236
920.05908	18236
921.73779	18227
923.41626	18252
925.09442	18247
926.77234	18244
928.44995	18253
930.12732	18266
931.80444	18267
933.48126	18258
935.15778	18279
936.83411	18274
938.51013	18237
940.18591	18266
941.86005	18263
943.53528	18259
945.21021	18257
946.88495	18256
948.55798	18247
950.23212	18245
951.90466	18261
953.57825	18260
955.25165	18261
956.9234	18270
958.59619	18269
960.2674	18258
961.93829	18266
963.61035	18265
965.28076	18262
966.95227	18261
968.62207	18239
970.29175	18278
971.96106	18265
973.63141	18275
975.30029	18273
976.96881	18250
978.63715	18247
980.30511	18240
981.97284	18282
983.64032	18262
985.3075	18268
986.97449	18268
988.64117	18252
990.30756	18249
991.97375	18269
993.63959	18263
995.30518	18259
996.97058	18278
998.63428	18267
1000.2992	18270
1001.9637	18277
1003.6279	18260
1005.2907	18267
1006.9544	18276
1008.6179	18280
1010.2798	18270
1011.9427	18263
1013.6041	18294
1015.2666	18274
1016.9274	18302
1018.5893	18286
1020.2496	18280
1021.9097	18292
1023.5708	18298
1025.2303	18266
1026.8895	18292
1028.5498	18273
1030.2086	18290
1031.8671	18289
1033.5253	18314
1035.1832	18276
1036.8409	18302
1038.4996	18285
1040.1567	18295
1041.8137	18281
1043.4702	18314
1045.1266	18288
1046.7814	18295
1048.4373	18303
1050.0928	18285
1051.748	18293
1053.4031	18299
1055.0579	18317
1056.7111	18318
1058.3654	18297
1060.0193	18320
1061.6731	18305
1063.3252	18301
1064.9784	18314
1066.63	18320
1068.2827	18303
1069.9337	18313
1071.5859	18324
1073.2365	18325
1074.8881	18314
1076.5381	18307
1078.1892	18296
1079.8387	18327
1081.4879	18324
1083.137	18331
1084.7871	18313
1086.4355	18348
1088.0837	18331
1089.7317	18315
1091.3793	18320
1093.0269	18322
1094.6753	18338
1096.3221	18372
1097.9688	18339
1099.6151	18348
1101.2612	18339
1102.9059	18325
1104.5515	18348
1106.1968	18378
1107.8419	18358
1109.4867	18353
1111.1312	18344
1112.7742	18374
1114.4183	18373
1116.0621	18364
1117.7042	18371
1119.3475	18366
1120.9905	18375
1122.632	18382
1124.2744	18375
1125.9153	18358
1127.5573	18395
1129.1976	18372
1130.8378	18398
1132.479	18389
1134.1185	18377
1135.7593	18384
1137.3983	18420
1139.0371	18394
1140.6757	18377
1142.314	18373
1143.9535	18398
1145.5912	18416
1147.2288	18415
1148.8661	18422
1150.5031	18420
1152.1398	18414
1153.7762	18432
1155.4125	18445
1157.0485	18418
1158.6842	18423
1160.3197	18430
1161.9536	18446
1163.5885	18443
1165.2233	18423
1166.8577	18469
1168.4918	18469
1170.1245	18466
1171.7581	18478
1173.3903	18466
1175.0233	18476
1176.6564	18456
1178.2876	18472
1179.92	18493
1181.5508	18475
1183.1827	18479
1184.813	18472
1186.443	18511
1188.0741	18496
1189.7036	18465
1191.3329	18488
1192.9633	18502
1194.5919	18519
1196.2205	18520
1197.8486	18523
1199.4767	18522
1201.1044	18522
1202.7318	18521
1204.3591	18540
1205.9861	18537
1207.6128	18545
1209.2393	18567
1210.8654	18560
1212.4913	18537
1214.1171	18538
1215.7424	18568
1217.3677	18581
1218.9913	18586
1220.616	18559
1222.2404	18561
1223.8645	18582
1225.4871	18597
1227.1107	18585
1228.7328	18629
1230.356	18629
1231.9775	18633
1233.6001	18632
1235.2212	18645
1236.8433	18650
1238.4639	18669
1240.0854	18656
1241.7054	18667
1243.3252	18681
1244.946	18690
1246.5654	18679
1248.1844	18699
1249.8032	18713
1251.4218	18713
1253.0399	18757
1254.658	18733
1256.277	18749
1257.8945	18788
1259.5118	18750
1261.1288	18775
1262.7443	18775
1264.3607	18788
1265.9769	18788
1267.5929	18805
1269.2087	18832
1270.8242	18846
1272.4381	18843
1274.053	18889
1275.6677	18896
1277.281	18896
1278.8951	18936
1280.5092	18909
1282.1215	18965
1283.735	18992
1285.3469	19018
1286.9598	18996
1288.5713	19058
1290.1836	19065
1291.7946	19117
1293.4053	19127
1295.017	19226
1296.6271	19269
1298.2369	19330
1299.8466	19368
1301.4561	19449
1303.0664	19565
1304.6753	19606
1306.2839	19725
1307.8923	19906
1309.5004	20096
1311.1083	20195
1312.7159	20336
1314.3234	20500
1315.9304	20684
1317.5372	20925
1319.1427	21209
1320.749	21468
1322.3551	21952
1323.9609	22857
1325.5653	24621
1327.1707	29857
1328.7758	44078
1330.3794	58514
1331.984	62171
1333.5884	62517
1335.1912	63691
1336.795	67286
1338.3973	73512
1340.0007	82806
1341.6025	98378
1343.2041	125729
1344.8068	179853
1346.4078	309256
1348.0087	528916
1349.6093	565269
1351.2108	284242
1352.8109	101778
1354.4108	51977
1356.0104	37719
1357.6096	31511
1359.2087	27759
1360.8075	25396
1362.4061	23878
1364.0045	22924
1365.6025	22322
1367.2004	21785
1368.798	21356
1370.3953	21086
1371.9911	20851
1373.5879	20656
1375.1846	20468
1376.7809	20355
1378.3757	20242
1379.9716	20120
1381.5671	20097
1383.1613	19986
1384.7563	19953
1386.3499	19887
1387.9445	19818
1389.5376	19822
1391.1317	19787
1392.7242	19739
1394.3167	19721
1395.91	19685
1397.5018	19674
1399.0934	19679
1400.6847	19648
1402.2771	19599
1403.8679	19533
1405.4586	19593
1407.0488	19534
1408.639	19531
1410.2289	19528
1411.8185	19487
1413.408	19457
1414.9969	19477
1416.5859	19460
1418.1744	19415
1419.7629	19444
1421.3497	19378
1422.9376	19427
1424.5253	19429
1426.1127	19388
1427.6985	19367
1429.2854	19333
1430.8721	19359
1432.4573	19324
1434.0433	19336
1435.6279	19330
1437.2136	19293
1438.7977	19294
1440.3831	19302
1441.9667	19276
1443.55	19241
1445.1345	19260
1446.7174	19236
1448.3	19256
1449.8839	19220
1451.4659	19211
1453.0479	19227
1454.6296	19196
1456.2111	19203
1457.7924	19200
1459.3733	19187
1460.954	19147
1462.5344	19191
1464.1146	19163
1465.6947	19164
1467.2744	19141
1468.8539	19184
1470.4331	19127
1472.0109	19152
1473.5897	19143
1475.1681	19108
1476.7465	19132
1478.3232	19149
1479.901	19132
1481.4773	19122
1483.0546	19089
1484.6302	19108
1486.2072	19089
1487.7825	19120
1489.3588	19116
1490.9336	19109
1492.5094	19127
1494.0837	19108
1495.6578	19100
1497.2317	19109
1498.8065	19110
1500.3799	19092
1501.953	19104
1503.5259	19102
1505.0985	19111
1506.6708	19078
1508.2429	19082
1509.8149	19086
1511.3865	19108
1512.9579	19102
1514.5292	19117
1516.1001	19139
1517.6707	19097
1519.2412	19111
1520.8101	19077
1522.38	19139
1523.9497	19123
1525.5181	19146
1527.0872	19132
1528.6561	19127
1530.2238	19167
1531.7922	19135
1533.3593	19137
1534.9271	19127
1536.4938	19140
1538.0613	19174
1539.6273	19109
1541.1931	19167
1542.76	19183
1544.3252	19171
1545.8903	19181
1547.4551	19189
1549.0209	19197
1550.5853	19185
1552.1494	19164
1553.7133	19201
1555.2769	19219
1556.8403	19203
1558.4034	19214
1559.9664	19251
1561.5291	19228
1563.0914	19265
1564.6537	19270
1566.2144	19273
1567.776	19276
1569.3375	19311
1570.8987	19300
1572.4584	19320
1574.0193	19323
1575.5797	19323
1577.1387	19361
1578.6987	19389
1580.2572	19360
1581.8168	19387
1583.3748	19416
1584.934	19406
1586.4915	19420
1588.0488	19447
1589.6072	19513
1591.1639	19484
1592.7206	19511
1594.277	19488
1595.8345	19524
1597.3904	19572
1598.946	19576
1600.5013	19571
1602.0565	19578
1603.6115	19588
1605.1661	19630
1606.7207	19621
1608.2749	19637
1609.8289	19645
1611.3826	19645
1612.9348	19660
1614.4883	19682
1616.0413	19678
1617.594	19713
1619.1454	19744
1620.6976	19679
1622.2498	19673
1623.8003	19708
1625.3519	19705
1626.9021	19678
1628.4532	19697
1630.0028	19695
1631.5535	19664
1633.1027	19644
1634.6516	19647
1636.2015	19616
1637.75	19581
1639.2982	19574
1640.8462	19523
1642.3951	19527
1643.9427	19500
1645.49	19455
1647.037	19437
1648.5839	19388
1650.1304	19370
1651.6768	19375
1653.2229	19333
1654.7687	19263
1656.3143	19268
1657.8597	19239
1659.4037	19225
1660.9485	19185
1662.4933	19127
1664.0377	19106
1665.5807	19091
1667.1246	19036
1668.6683	19052
1670.2106	18981
1671.7539	18980
1673.2957	18962
1674.8385	18938
1676.3798	18897
1677.9221	18886
1679.4629	18873
1681.0034	18847
1682.545	18855
1684.0852	18807
1685.6251	18800
1687.1648	18797
1688.7056	18749
1690.2448	18736
1691.7837	18743
1693.3224	18727
1694.8608	18730
1696.399	18703
1697.9371	18677
1699.475	18677
1701.0126	18655
1702.5498	18637
1704.0857	18648
1705.6224	18653
1707.1591	18634
1708.6956	18615
1710.2305	18585
1711.7664	18571
1713.3021	18603
1714.8363	18571
1716.3715	18601
1717.9052	18588
1719.4399	18556
1720.9733	18558
1722.5076	18575
1724.0403	18542
